Label: EMG sensor 4: Ch4 (Dev1) Sampling frequency: 4.000000e+003 Number of points: 82000 X start: 0.000000e+000 Unit: Volts Domain Unit: s
Start Trigger Method: None
Stop Trigger Method: None
Use Camera: NO
Video File Path: 
System Gain: 1.000000e+003
A/D card Gain: 1.000000e+000
Bit Resolution: -1.000000e+000
Bias: 0.000000e+000
High pass cutoff frequency: 0.000000e+000
Low pass cutoff frequency: 0.000000e+000
X [s],EMG sensor 4: Ch4 (Dev1) [Volts]
0.000000e+000,-5.899587e-005
2.500000e-004,-6.110084e-005
5.000000e-004,-6.223428e-005
7.500000e-004,-6.417734e-005
1.000000e-003,-6.660615e-005
1.250000e-003,-6.822536e-005
1.500000e-003,-7.065417e-005
1.750000e-003,-7.275915e-005
2.000000e-003,-7.437836e-005
2.250000e-003,-7.615949e-005
2.500000e-003,-7.729293e-005
2.750000e-003,-7.777870e-005
3.000000e-003,-7.745486e-005
3.250000e-003,-7.680718e-005
3.500000e-003,-7.664525e-005
3.750000e-003,-7.599757e-005
4.000000e-003,-7.518796e-005
4.250000e-003,-7.405452e-005
4.500000e-003,-7.178762e-005
4.750000e-003,-6.919688e-005
5.000000e-003,-6.531078e-005
5.250000e-003,-6.142468e-005
5.500000e-003,-5.770049e-005
5.750000e-003,-5.251902e-005
6.000000e-003,-4.782331e-005
6.250000e-003,-4.426105e-005
6.500000e-003,-4.183224e-005
6.750000e-003,-4.037495e-005
7.000000e-003,-3.875573e-005
7.250000e-003,-3.713653e-005
7.500000e-003,-3.503155e-005
7.750000e-003,-3.227890e-005
8.000000e-003,-3.082161e-005
8.250000e-003,-2.920240e-005
8.500000e-003,-2.725934e-005
8.750000e-003,-2.596398e-005
9.000000e-003,-2.353516e-005
9.250000e-003,-2.045866e-005
9.500000e-003,-1.770600e-005
9.750000e-003,-1.495335e-005
1.000000e-002,-1.187685e-005
1.025000e-002,-9.609954e-006
1.050000e-002,-7.666902e-006
1.075000e-002,-6.533455e-006
1.100000e-002,-5.885771e-006
1.125000e-002,-6.047692e-006
1.150000e-002,-7.181139e-006
1.175000e-002,-8.962270e-006
1.200000e-002,-1.025764e-005
1.225000e-002,-1.041956e-005
1.250000e-002,-1.041956e-005
1.275000e-002,-1.009572e-005
1.300000e-002,-1.041956e-005
1.325000e-002,-1.041956e-005
1.350000e-002,-1.058148e-005
1.375000e-002,-1.025764e-005
1.400000e-002,-1.106724e-005
1.425000e-002,-1.155301e-005
1.450000e-002,-1.171493e-005
1.475000e-002,-1.301030e-005
1.500000e-002,-1.479143e-005
1.525000e-002,-1.657256e-005
1.550000e-002,-1.770600e-005
1.575000e-002,-1.916330e-005
1.600000e-002,-2.159211e-005
1.625000e-002,-2.272556e-005
1.650000e-002,-2.402092e-005
1.675000e-002,-2.580206e-005
1.700000e-002,-2.790703e-005
1.725000e-002,-2.968816e-005
1.750000e-002,-3.227890e-005
1.775000e-002,-3.325042e-005
1.800000e-002,-3.486963e-005
1.825000e-002,-3.632692e-005
1.850000e-002,-3.859381e-005
1.875000e-002,-4.150839e-005
1.900000e-002,-4.507065e-005
1.925000e-002,-4.782331e-005
1.950000e-002,-5.025213e-005
1.975000e-002,-5.203326e-005
2.000000e-002,-5.332863e-005
2.025000e-002,-5.462399e-005
2.050000e-002,-5.656705e-005
2.075000e-002,-5.851010e-005
2.100000e-002,-6.061507e-005
2.125000e-002,-6.304389e-005
2.150000e-002,-6.531078e-005
2.175000e-002,-6.644423e-005
2.200000e-002,-6.757768e-005
2.225000e-002,-6.838728e-005
2.250000e-002,-6.919688e-005
2.275000e-002,-7.016841e-005
2.300000e-002,-7.000649e-005
2.325000e-002,-6.919688e-005
2.350000e-002,-6.952073e-005
2.375000e-002,-6.903497e-005
2.400000e-002,-6.806344e-005
2.425000e-002,-6.692999e-005
2.450000e-002,-6.466310e-005
2.475000e-002,-6.191044e-005
2.500000e-002,-5.948163e-005
2.525000e-002,-5.737665e-005
2.550000e-002,-5.591936e-005
2.575000e-002,-5.365247e-005
2.600000e-002,-5.219518e-005
2.625000e-002,-4.976636e-005
2.650000e-002,-4.701371e-005
2.675000e-002,-4.490873e-005
2.700000e-002,-4.150839e-005
2.725000e-002,-3.859381e-005
2.750000e-002,-3.681268e-005
2.775000e-002,-3.422195e-005
2.800000e-002,-3.211697e-005
2.825000e-002,-3.001200e-005
2.850000e-002,-2.806895e-005
2.875000e-002,-2.596398e-005
2.900000e-002,-2.515437e-005
2.925000e-002,-2.353516e-005
2.950000e-002,-2.256364e-005
2.975000e-002,-2.126827e-005
3.000000e-002,-1.948714e-005
3.025000e-002,-1.835369e-005
3.050000e-002,-1.819177e-005
3.075000e-002,-1.802985e-005
3.100000e-002,-1.802985e-005
3.125000e-002,-1.705832e-005
3.150000e-002,-1.446759e-005
3.175000e-002,-1.058148e-005
3.200000e-002,-5.885771e-006
3.225000e-002,1.053066e-007
3.250000e-002,4.639095e-006
3.275000e-002,8.039436e-006
3.300000e-002,9.496725e-006
3.325000e-002,9.496725e-006
3.350000e-002,8.039436e-006
3.375000e-002,7.715594e-006
3.400000e-002,6.905989e-006
3.425000e-002,6.420226e-006
3.450000e-002,4.962937e-006
3.475000e-002,2.534122e-006
3.500000e-002,-7.042985e-007
3.525000e-002,-3.780798e-006
3.550000e-002,-6.533455e-006
3.575000e-002,-8.638428e-006
3.600000e-002,-1.025764e-005
3.625000e-002,-1.333414e-005
3.650000e-002,-1.689640e-005
3.675000e-002,-2.207787e-005
3.700000e-002,-2.677358e-005
3.725000e-002,-3.033584e-005
3.750000e-002,-3.292658e-005
3.775000e-002,-3.454579e-005
3.800000e-002,-3.486963e-005
3.825000e-002,-3.503155e-005
3.850000e-002,-3.584116e-005
3.875000e-002,-3.729845e-005
3.900000e-002,-4.005111e-005
3.925000e-002,-4.474682e-005
3.950000e-002,-4.847100e-005
3.975000e-002,-5.170942e-005
4.000000e-002,-5.430016e-005
4.025000e-002,-5.705281e-005
4.050000e-002,-5.948163e-005
4.075000e-002,-6.191044e-005
4.100000e-002,-6.450118e-005
4.125000e-002,-6.692999e-005
4.150000e-002,-6.952073e-005
4.175000e-002,-7.162570e-005
4.200000e-002,-7.308299e-005
4.225000e-002,-7.437836e-005
4.250000e-002,-7.567373e-005
4.275000e-002,-7.615949e-005
4.300000e-002,-7.745486e-005
4.325000e-002,-7.745486e-005
4.350000e-002,-7.713102e-005
4.375000e-002,-7.680718e-005
4.400000e-002,-7.534988e-005
4.425000e-002,-7.437836e-005
4.450000e-002,-7.259723e-005
4.475000e-002,-7.162570e-005
4.500000e-002,-7.000649e-005
4.525000e-002,-6.806344e-005
4.550000e-002,-6.579654e-005
4.575000e-002,-6.288196e-005
4.600000e-002,-5.996739e-005
4.625000e-002,-5.705281e-005
4.650000e-002,-5.494784e-005
4.675000e-002,-5.284286e-005
4.700000e-002,-5.009021e-005
4.725000e-002,-4.685179e-005
4.750000e-002,-4.296568e-005
4.775000e-002,-4.005111e-005
4.800000e-002,-3.762229e-005
4.825000e-002,-3.486963e-005
4.850000e-002,-3.227890e-005
4.875000e-002,-3.065968e-005
4.900000e-002,-2.904048e-005
4.925000e-002,-2.774511e-005
4.950000e-002,-2.596398e-005
4.975000e-002,-2.353516e-005
5.000000e-002,-2.110635e-005
5.025000e-002,-1.916330e-005
5.050000e-002,-1.786793e-005
5.075000e-002,-1.624872e-005
5.100000e-002,-1.462951e-005
5.125000e-002,-1.365798e-005
5.150000e-002,-1.220069e-005
5.175000e-002,-1.252453e-005
5.200000e-002,-1.203877e-005
5.225000e-002,-1.236261e-005
5.250000e-002,-1.203877e-005
5.275000e-002,-1.187685e-005
5.300000e-002,-1.155301e-005
5.325000e-002,-1.122916e-005
5.350000e-002,-1.106724e-005
5.375000e-002,-1.106724e-005
5.400000e-002,-1.155301e-005
5.425000e-002,-1.122916e-005
5.450000e-002,-1.155301e-005
5.475000e-002,-1.236261e-005
5.500000e-002,-1.349606e-005
5.525000e-002,-1.543911e-005
5.550000e-002,-1.754408e-005
5.575000e-002,-1.916330e-005
5.600000e-002,-2.029674e-005
5.625000e-002,-2.207787e-005
5.650000e-002,-2.418285e-005
5.675000e-002,-2.677358e-005
5.700000e-002,-2.936432e-005
5.725000e-002,-3.195505e-005
5.750000e-002,-3.422195e-005
5.775000e-002,-3.567924e-005
5.800000e-002,-3.713653e-005
5.825000e-002,-3.956534e-005
5.850000e-002,-4.150839e-005
5.875000e-002,-4.296568e-005
5.900000e-002,-4.539450e-005
5.925000e-002,-4.798524e-005
5.950000e-002,-4.992829e-005
5.975000e-002,-5.251902e-005
6.000000e-002,-5.478592e-005
6.025000e-002,-5.672897e-005
6.050000e-002,-5.915778e-005
6.075000e-002,-6.061507e-005
6.100000e-002,-6.174852e-005
6.125000e-002,-6.272005e-005
6.150000e-002,-6.352965e-005
6.175000e-002,-6.450118e-005
6.200000e-002,-6.563462e-005
6.225000e-002,-6.660615e-005
6.250000e-002,-6.741576e-005
6.275000e-002,-6.838728e-005
6.300000e-002,-6.790152e-005
6.325000e-002,-6.725383e-005
6.350000e-002,-6.660615e-005
6.375000e-002,-6.579654e-005
6.400000e-002,-6.595847e-005
6.425000e-002,-6.466310e-005
6.450000e-002,-6.369157e-005
6.475000e-002,-6.174852e-005
6.500000e-002,-5.867202e-005
6.525000e-002,-5.510976e-005
6.550000e-002,-5.203326e-005
6.575000e-002,-4.830907e-005
6.600000e-002,-4.636602e-005
6.625000e-002,-4.442297e-005
6.650000e-002,-4.231800e-005
6.675000e-002,-4.005111e-005
6.700000e-002,-3.746037e-005
6.725000e-002,-3.503155e-005
6.750000e-002,-3.276466e-005
6.775000e-002,-3.001200e-005
6.800000e-002,-2.774511e-005
6.825000e-002,-2.450669e-005
6.850000e-002,-2.256364e-005
6.875000e-002,-2.045866e-005
6.900000e-002,-1.916330e-005
6.925000e-002,-1.770600e-005
6.950000e-002,-1.608679e-005
6.975000e-002,-1.365798e-005
7.000000e-002,-1.171493e-005
7.025000e-002,-1.058148e-005
7.050000e-002,-9.286112e-006
7.075000e-002,-8.476507e-006
7.100000e-002,-7.666902e-006
7.125000e-002,-7.343060e-006
7.150000e-002,-6.533455e-006
7.175000e-002,-6.695376e-006
7.200000e-002,-6.533455e-006
7.225000e-002,-6.695376e-006
7.250000e-002,-6.695376e-006
7.275000e-002,-7.666902e-006
7.300000e-002,-8.152665e-006
7.325000e-002,-8.638428e-006
7.350000e-002,-8.962270e-006
7.375000e-002,-1.074340e-005
7.400000e-002,-1.268645e-005
7.425000e-002,-1.462951e-005
7.450000e-002,-1.608679e-005
7.475000e-002,-1.722024e-005
7.500000e-002,-1.883945e-005
7.525000e-002,-1.997290e-005
7.550000e-002,-2.159211e-005
7.575000e-002,-2.321132e-005
7.600000e-002,-2.418285e-005
7.625000e-002,-2.677358e-005
7.650000e-002,-2.887855e-005
7.675000e-002,-3.098353e-005
7.700000e-002,-3.260274e-005
7.725000e-002,-3.389810e-005
7.750000e-002,-3.567924e-005
7.775000e-002,-3.843190e-005
7.800000e-002,-4.053687e-005
7.825000e-002,-4.231800e-005
7.850000e-002,-4.426105e-005
7.875000e-002,-4.539450e-005
7.900000e-002,-4.717563e-005
7.925000e-002,-4.911868e-005
7.950000e-002,-5.122365e-005
7.975000e-002,-5.381439e-005
8.000000e-002,-5.624321e-005
8.025000e-002,-5.899587e-005
8.050000e-002,-6.110084e-005
8.075000e-002,-6.239620e-005
8.100000e-002,-6.288196e-005
8.125000e-002,-6.352965e-005
8.150000e-002,-6.385349e-005
8.175000e-002,-6.466310e-005
8.200000e-002,-6.531078e-005
8.225000e-002,-6.547270e-005
8.250000e-002,-6.531078e-005
8.275000e-002,-6.514887e-005
8.300000e-002,-6.450118e-005
8.325000e-002,-6.336773e-005
8.350000e-002,-6.239620e-005
8.375000e-002,-6.191044e-005
8.400000e-002,-6.207236e-005
8.425000e-002,-6.142468e-005
8.450000e-002,-6.077699e-005
8.475000e-002,-5.964355e-005
8.500000e-002,-5.770049e-005
8.525000e-002,-5.510976e-005
8.550000e-002,-5.251902e-005
8.575000e-002,-4.863292e-005
8.600000e-002,-4.571834e-005
8.625000e-002,-4.280376e-005
8.650000e-002,-4.037495e-005
8.675000e-002,-3.681268e-005
8.700000e-002,-3.260274e-005
8.725000e-002,-2.774511e-005
8.750000e-002,-2.337324e-005
8.775000e-002,-2.013482e-005
8.800000e-002,-1.835369e-005
8.825000e-002,-1.673448e-005
8.850000e-002,-1.624872e-005
8.875000e-002,-1.608679e-005
8.900000e-002,-1.624872e-005
8.925000e-002,-1.624872e-005
8.950000e-002,-1.608679e-005
8.975000e-002,-1.576295e-005
9.000000e-002,-1.462951e-005
9.025000e-002,-1.301030e-005
9.050000e-002,-1.268645e-005
9.075000e-002,-1.252453e-005
9.100000e-002,-1.381990e-005
9.125000e-002,-1.495335e-005
9.150000e-002,-1.511527e-005
9.175000e-002,-1.543911e-005
9.200000e-002,-1.511527e-005
9.225000e-002,-1.479143e-005
9.250000e-002,-1.430566e-005
9.275000e-002,-1.511527e-005
9.300000e-002,-1.641064e-005
9.325000e-002,-1.835369e-005
9.350000e-002,-1.900137e-005
9.375000e-002,-1.981098e-005
9.400000e-002,-2.094442e-005
9.425000e-002,-2.159211e-005
9.450000e-002,-2.191595e-005
9.475000e-002,-2.240171e-005
9.500000e-002,-2.369708e-005
9.525000e-002,-2.434477e-005
9.550000e-002,-2.564013e-005
9.575000e-002,-2.564013e-005
9.600000e-002,-2.531629e-005
9.625000e-002,-2.628782e-005
9.650000e-002,-2.758319e-005
9.675000e-002,-3.001200e-005
9.700000e-002,-3.389810e-005
9.725000e-002,-3.665076e-005
9.750000e-002,-3.875573e-005
9.775000e-002,-4.021302e-005
9.800000e-002,-4.102263e-005
9.825000e-002,-4.183224e-005
9.850000e-002,-4.345144e-005
9.875000e-002,-4.588026e-005
9.900000e-002,-4.830907e-005
9.925000e-002,-5.138558e-005
9.950000e-002,-5.365247e-005
9.975000e-002,-5.543360e-005
1.000000e-001,-5.672897e-005
1.002500e-001,-5.802434e-005
1.005000e-001,-6.012931e-005
1.007500e-001,-6.093892e-005
1.010000e-001,-6.142468e-005
1.012500e-001,-6.126276e-005
1.015000e-001,-6.142468e-005
1.017500e-001,-6.142468e-005
1.020000e-001,-6.272005e-005
1.022500e-001,-6.336773e-005
1.025000e-001,-6.466310e-005
1.027500e-001,-6.482501e-005
1.030000e-001,-6.482501e-005
1.032500e-001,-6.482501e-005
1.035000e-001,-6.482501e-005
1.037500e-001,-6.531078e-005
1.040000e-001,-6.450118e-005
1.042500e-001,-6.272005e-005
1.045000e-001,-6.045315e-005
1.047500e-001,-5.834818e-005
1.050000e-001,-5.672897e-005
1.052500e-001,-5.640513e-005
1.055000e-001,-5.624321e-005
1.057500e-001,-5.510976e-005
1.060000e-001,-5.413823e-005
1.062500e-001,-5.251902e-005
1.065000e-001,-5.009021e-005
1.067500e-001,-4.668987e-005
1.070000e-001,-4.361337e-005
1.072500e-001,-4.102263e-005
1.075000e-001,-3.810805e-005
1.077500e-001,-3.535540e-005
1.080000e-001,-3.211697e-005
1.082500e-001,-2.887855e-005
1.085000e-001,-2.596398e-005
1.087500e-001,-2.321132e-005
1.090000e-001,-1.981098e-005
1.092500e-001,-1.738216e-005
1.095000e-001,-1.511527e-005
1.097500e-001,-1.381990e-005
1.100000e-001,-1.268645e-005
1.102500e-001,-1.122916e-005
1.105000e-001,-1.025764e-005
1.107500e-001,-9.448033e-006
1.110000e-001,-9.124191e-006
1.112500e-001,-8.638428e-006
1.115000e-001,-8.314586e-006
1.117500e-001,-8.638428e-006
1.120000e-001,-7.181139e-006
1.122500e-001,-6.371534e-006
1.125000e-001,-6.695376e-006
1.127500e-001,-8.800349e-006
1.130000e-001,-1.155301e-005
1.132500e-001,-1.430566e-005
1.135000e-001,-1.689640e-005
1.137500e-001,-1.835369e-005
1.140000e-001,-1.948714e-005
1.142500e-001,-1.964906e-005
1.145000e-001,-2.126827e-005
1.147500e-001,-2.207787e-005
1.150000e-001,-2.353516e-005
1.152500e-001,-2.564013e-005
1.155000e-001,-2.758319e-005
1.157500e-001,-2.839279e-005
1.160000e-001,-2.936432e-005
1.162500e-001,-3.001200e-005
1.165000e-001,-3.114545e-005
1.167500e-001,-3.179313e-005
1.170000e-001,-3.292658e-005
1.172500e-001,-3.308850e-005
1.175000e-001,-3.486963e-005
1.177500e-001,-3.697461e-005
1.180000e-001,-3.940342e-005
1.182500e-001,-4.280376e-005
1.185000e-001,-4.668987e-005
1.187500e-001,-4.911868e-005
1.190000e-001,-5.057597e-005
1.192500e-001,-5.268094e-005
1.195000e-001,-5.527168e-005
1.197500e-001,-5.867202e-005
1.200000e-001,-6.174852e-005
1.202500e-001,-6.401541e-005
1.205000e-001,-6.547270e-005
1.207500e-001,-6.579654e-005
1.210000e-001,-6.628231e-005
1.212500e-001,-6.676807e-005
1.215000e-001,-6.628231e-005
1.217500e-001,-6.547270e-005
1.220000e-001,-6.385349e-005
1.222500e-001,-6.158660e-005
1.225000e-001,-5.915778e-005
1.227500e-001,-5.721473e-005
1.230000e-001,-5.575744e-005
1.232500e-001,-5.430016e-005
1.235000e-001,-5.268094e-005
1.237500e-001,-5.138558e-005
1.240000e-001,-4.944253e-005
1.242500e-001,-4.701371e-005
1.245000e-001,-4.393721e-005
1.247500e-001,-4.231800e-005
1.250000e-001,-4.199416e-005
1.252500e-001,-4.215608e-005
1.255000e-001,-4.150839e-005
1.257500e-001,-4.053687e-005
1.260000e-001,-3.940342e-005
1.262500e-001,-3.843190e-005
1.265000e-001,-3.778421e-005
1.267500e-001,-3.713653e-005
1.270000e-001,-3.616500e-005
1.272500e-001,-3.389810e-005
1.275000e-001,-3.130737e-005
1.277500e-001,-2.855471e-005
1.280000e-001,-2.547821e-005
1.282500e-001,-2.353516e-005
1.285000e-001,-2.191595e-005
1.287500e-001,-2.110635e-005
1.290000e-001,-2.062058e-005
1.292500e-001,-2.045866e-005
1.295000e-001,-1.932521e-005
1.297500e-001,-1.770600e-005
1.300000e-001,-1.624872e-005
1.302500e-001,-1.543911e-005
1.305000e-001,-1.479143e-005
1.307500e-001,-1.446759e-005
1.310000e-001,-1.414374e-005
1.312500e-001,-1.349606e-005
1.315000e-001,-1.301030e-005
1.317500e-001,-1.171493e-005
1.320000e-001,-1.122916e-005
1.322500e-001,-1.090532e-005
1.325000e-001,-1.041956e-005
1.327500e-001,-1.139109e-005
1.330000e-001,-1.203877e-005
1.332500e-001,-1.365798e-005
1.335000e-001,-1.479143e-005
1.337500e-001,-1.624872e-005
1.340000e-001,-1.689640e-005
1.342500e-001,-1.770600e-005
1.345000e-001,-1.705832e-005
1.347500e-001,-1.722024e-005
1.350000e-001,-1.673448e-005
1.352500e-001,-1.592487e-005
1.355000e-001,-1.543911e-005
1.357500e-001,-1.576295e-005
1.360000e-001,-1.673448e-005
1.362500e-001,-1.802985e-005
1.365000e-001,-1.997290e-005
1.367500e-001,-2.337324e-005
1.370000e-001,-2.693550e-005
1.372500e-001,-3.146929e-005
1.375000e-001,-3.567924e-005
1.377500e-001,-3.875573e-005
1.380000e-001,-4.199416e-005
1.382500e-001,-4.409913e-005
1.385000e-001,-4.652794e-005
1.387500e-001,-4.911868e-005
1.390000e-001,-5.187134e-005
1.392500e-001,-5.510976e-005
1.395000e-001,-5.834818e-005
1.397500e-001,-6.126276e-005
1.400000e-001,-6.433926e-005
1.402500e-001,-6.676807e-005
1.405000e-001,-6.822536e-005
1.407500e-001,-6.984457e-005
1.410000e-001,-7.178762e-005
1.412500e-001,-7.389260e-005
1.415000e-001,-7.551181e-005
1.417500e-001,-7.680718e-005
1.420000e-001,-7.810254e-005
1.422500e-001,-7.907407e-005
1.425000e-001,-7.972175e-005
1.427500e-001,-7.972175e-005
1.430000e-001,-7.794063e-005
1.432500e-001,-7.632141e-005
1.435000e-001,-7.405452e-005
1.437500e-001,-7.259723e-005
1.440000e-001,-7.049226e-005
1.442500e-001,-6.838728e-005
1.445000e-001,-6.709192e-005
1.447500e-001,-6.547270e-005
1.450000e-001,-6.385349e-005
1.452500e-001,-6.142468e-005
1.455000e-001,-5.931970e-005
1.457500e-001,-5.640513e-005
1.460000e-001,-5.462399e-005
1.462500e-001,-5.235710e-005
1.465000e-001,-5.041405e-005
1.467500e-001,-4.830907e-005
1.470000e-001,-4.507065e-005
1.472500e-001,-4.167031e-005
1.475000e-001,-3.729845e-005
1.477500e-001,-3.244082e-005
1.480000e-001,-2.887855e-005
1.482500e-001,-2.515437e-005
1.485000e-001,-2.223979e-005
1.487500e-001,-1.932521e-005
1.490000e-001,-1.624872e-005
1.492500e-001,-1.317222e-005
1.495000e-001,-1.187685e-005
1.497500e-001,-1.025764e-005
1.500000e-001,-9.771876e-006
1.502500e-001,-8.962270e-006
1.505000e-001,-8.152665e-006
1.507500e-001,-7.181139e-006
1.510000e-001,-6.209613e-006
1.512500e-001,-6.047692e-006
1.515000e-001,-5.723850e-006
1.517500e-001,-6.209613e-006
1.520000e-001,-5.723850e-006
1.522500e-001,-5.561929e-006
1.525000e-001,-5.076166e-006
1.527500e-001,-4.752324e-006
1.530000e-001,-4.752324e-006
1.532500e-001,-5.723850e-006
1.535000e-001,-7.181139e-006
1.537500e-001,-8.638428e-006
1.540000e-001,-1.025764e-005
1.542500e-001,-1.155301e-005
1.545000e-001,-1.317222e-005
1.547500e-001,-1.414374e-005
1.550000e-001,-1.576295e-005
1.552500e-001,-1.705832e-005
1.555000e-001,-1.867753e-005
1.557500e-001,-2.110635e-005
1.560000e-001,-2.337324e-005
1.562500e-001,-2.580206e-005
1.565000e-001,-2.806895e-005
1.567500e-001,-3.017392e-005
1.570000e-001,-3.195505e-005
1.572500e-001,-3.341234e-005
1.575000e-001,-3.503155e-005
1.577500e-001,-3.794613e-005
1.580000e-001,-4.150839e-005
1.582500e-001,-4.458489e-005
1.585000e-001,-4.636602e-005
1.587500e-001,-4.847100e-005
1.590000e-001,-4.992829e-005
1.592500e-001,-5.089981e-005
1.595000e-001,-5.268094e-005
1.597500e-001,-5.559552e-005
1.600000e-001,-5.818626e-005
1.602500e-001,-6.045315e-005
1.605000e-001,-6.191044e-005
1.607500e-001,-6.304389e-005
1.610000e-001,-6.433926e-005
1.612500e-001,-6.547270e-005
1.615000e-001,-6.595847e-005
1.617500e-001,-6.595847e-005
1.620000e-001,-6.612039e-005
1.622500e-001,-6.644423e-005
1.625000e-001,-6.676807e-005
1.627500e-001,-6.741576e-005
1.630000e-001,-6.741576e-005
1.632500e-001,-6.709192e-005
1.635000e-001,-6.709192e-005
1.637500e-001,-6.612039e-005
1.640000e-001,-6.498694e-005
1.642500e-001,-6.352965e-005
1.645000e-001,-6.191044e-005
1.647500e-001,-5.931970e-005
1.650000e-001,-5.656705e-005
1.652500e-001,-5.413823e-005
1.655000e-001,-5.154750e-005
1.657500e-001,-4.879484e-005
1.660000e-001,-4.652794e-005
1.662500e-001,-4.458489e-005
1.665000e-001,-4.150839e-005
1.667500e-001,-3.907958e-005
1.670000e-001,-3.648884e-005
1.672500e-001,-3.341234e-005
1.675000e-001,-3.049776e-005
1.677500e-001,-2.661166e-005
1.680000e-001,-2.272556e-005
1.682500e-001,-1.916330e-005
1.685000e-001,-1.560103e-005
1.687500e-001,-1.252453e-005
1.690000e-001,-1.090532e-005
1.692500e-001,-1.041956e-005
1.695000e-001,-9.933796e-006
1.697500e-001,-9.124191e-006
1.700000e-001,-7.019218e-006
1.702500e-001,-5.400008e-006
1.705000e-001,-3.456956e-006
1.707500e-001,-2.323509e-006
1.710000e-001,-1.837745e-006
1.712500e-001,-1.028140e-006
1.715000e-001,-1.190062e-006
1.717500e-001,-8.662195e-007
1.720000e-001,-3.804564e-007
1.722500e-001,-5.423774e-007
1.725000e-001,-1.999666e-006
1.727500e-001,-3.942719e-006
1.730000e-001,-6.371534e-006
1.732500e-001,-8.476507e-006
1.735000e-001,-1.106724e-005
1.737500e-001,-1.284837e-005
1.740000e-001,-1.511527e-005
1.742500e-001,-1.608679e-005
1.745000e-001,-1.722024e-005
1.747500e-001,-1.851561e-005
1.750000e-001,-2.045866e-005
1.752500e-001,-2.304940e-005
1.755000e-001,-2.564013e-005
1.757500e-001,-2.839279e-005
1.760000e-001,-3.065968e-005
1.762500e-001,-3.227890e-005
1.765000e-001,-3.308850e-005
1.767500e-001,-3.389810e-005
1.770000e-001,-3.454579e-005
1.772500e-001,-3.713653e-005
1.775000e-001,-3.988919e-005
1.777500e-001,-4.231800e-005
1.780000e-001,-4.507065e-005
1.782500e-001,-4.749947e-005
1.785000e-001,-5.009021e-005
1.787500e-001,-5.203326e-005
1.790000e-001,-5.446207e-005
1.792500e-001,-5.543360e-005
1.795000e-001,-5.753857e-005
1.797500e-001,-5.980547e-005
1.800000e-001,-6.272005e-005
1.802500e-001,-6.531078e-005
1.805000e-001,-6.757768e-005
1.807500e-001,-6.903497e-005
1.810000e-001,-6.968265e-005
1.812500e-001,-6.984457e-005
1.815000e-001,-7.146378e-005
1.817500e-001,-7.373068e-005
1.820000e-001,-7.583565e-005
1.822500e-001,-7.745486e-005
1.825000e-001,-7.745486e-005
1.827500e-001,-7.632141e-005
1.830000e-001,-7.421643e-005
1.832500e-001,-7.162570e-005
1.835000e-001,-6.935881e-005
1.837500e-001,-6.871112e-005
1.840000e-001,-6.822536e-005
1.842500e-001,-6.725383e-005
1.845000e-001,-6.482501e-005
1.847500e-001,-6.239620e-005
1.850000e-001,-5.802434e-005
1.852500e-001,-5.462399e-005
1.855000e-001,-5.122365e-005
1.857500e-001,-4.798524e-005
1.860000e-001,-4.474682e-005
1.862500e-001,-4.150839e-005
1.865000e-001,-3.826997e-005
1.867500e-001,-3.519348e-005
1.870000e-001,-3.276466e-005
1.872500e-001,-3.130737e-005
1.875000e-001,-2.968816e-005
1.877500e-001,-2.774511e-005
1.880000e-001,-2.450669e-005
1.882500e-001,-2.175403e-005
1.885000e-001,-1.900137e-005
1.887500e-001,-1.673448e-005
1.890000e-001,-1.479143e-005
1.892500e-001,-1.187685e-005
1.895000e-001,-1.041956e-005
1.897500e-001,-9.771876e-006
1.900000e-001,-1.025764e-005
1.902500e-001,-1.058148e-005
1.905000e-001,-1.090532e-005
1.907500e-001,-1.009572e-005
1.910000e-001,-8.800349e-006
1.912500e-001,-7.990744e-006
1.915000e-001,-6.371534e-006
1.917500e-001,-5.400008e-006
1.920000e-001,-5.723850e-006
1.922500e-001,-6.533455e-006
1.925000e-001,-7.343060e-006
1.927500e-001,-8.152665e-006
1.930000e-001,-8.800349e-006
1.932500e-001,-8.962270e-006
1.935000e-001,-9.286112e-006
1.937500e-001,-1.025764e-005
1.940000e-001,-1.025764e-005
1.942500e-001,-1.106724e-005
1.945000e-001,-1.236261e-005
1.947500e-001,-1.381990e-005
1.950000e-001,-1.705832e-005
1.952500e-001,-2.013482e-005
1.955000e-001,-2.256364e-005
1.957500e-001,-2.483053e-005
1.960000e-001,-2.644974e-005
1.962500e-001,-2.871663e-005
1.965000e-001,-3.033584e-005
1.967500e-001,-3.292658e-005
1.970000e-001,-3.584116e-005
1.972500e-001,-3.778421e-005
1.975000e-001,-4.037495e-005
1.977500e-001,-4.199416e-005
1.980000e-001,-4.393721e-005
1.982500e-001,-4.588026e-005
1.985000e-001,-4.782331e-005
1.987500e-001,-4.976636e-005
1.990000e-001,-5.138558e-005
1.992500e-001,-5.300478e-005
1.995000e-001,-5.413823e-005
1.997500e-001,-5.640513e-005
2.000000e-001,-5.867202e-005
2.002500e-001,-6.093892e-005
2.005000e-001,-6.304389e-005
2.007500e-001,-6.466310e-005
2.010000e-001,-6.547270e-005
2.012500e-001,-6.531078e-005
2.015000e-001,-6.547270e-005
2.017500e-001,-6.498694e-005
2.020000e-001,-6.433926e-005
2.022500e-001,-6.401541e-005
2.025000e-001,-6.320581e-005
2.027500e-001,-6.288196e-005
2.030000e-001,-6.320581e-005
2.032500e-001,-6.320581e-005
2.035000e-001,-6.255812e-005
2.037500e-001,-6.223428e-005
2.040000e-001,-6.126276e-005
2.042500e-001,-5.980547e-005
2.045000e-001,-5.737665e-005
2.047500e-001,-5.446207e-005
2.050000e-001,-5.203326e-005
2.052500e-001,-4.960444e-005
2.055000e-001,-4.847100e-005
2.057500e-001,-4.717563e-005
2.060000e-001,-4.588026e-005
2.062500e-001,-4.393721e-005
2.065000e-001,-4.086071e-005
2.067500e-001,-3.778421e-005
2.070000e-001,-3.486963e-005
2.072500e-001,-3.260274e-005
2.075000e-001,-3.033584e-005
2.077500e-001,-2.693550e-005
2.080000e-001,-2.466861e-005
2.082500e-001,-2.256364e-005
2.085000e-001,-2.094442e-005
2.087500e-001,-2.013482e-005
2.090000e-001,-1.981098e-005
2.092500e-001,-1.851561e-005
2.095000e-001,-1.705832e-005
2.097500e-001,-1.511527e-005
2.100000e-001,-1.284837e-005
2.102500e-001,-1.236261e-005
2.105000e-001,-1.236261e-005
2.107500e-001,-1.317222e-005
2.110000e-001,-1.430566e-005
2.112500e-001,-1.398182e-005
2.115000e-001,-1.220069e-005
2.117500e-001,-1.058148e-005
2.120000e-001,-1.041956e-005
2.122500e-001,-9.933796e-006
2.125000e-001,-1.058148e-005
2.127500e-001,-1.041956e-005
2.130000e-001,-9.448033e-006
2.132500e-001,-8.476507e-006
2.135000e-001,-8.314586e-006
2.137500e-001,-8.800349e-006
2.140000e-001,-9.448033e-006
2.142500e-001,-1.058148e-005
2.145000e-001,-1.187685e-005
2.147500e-001,-1.349606e-005
2.150000e-001,-1.560103e-005
2.152500e-001,-1.786793e-005
2.155000e-001,-1.997290e-005
2.157500e-001,-2.223979e-005
2.160000e-001,-2.483053e-005
2.162500e-001,-2.806895e-005
2.165000e-001,-3.227890e-005
2.167500e-001,-3.681268e-005
2.170000e-001,-4.053687e-005
2.172500e-001,-4.361337e-005
2.175000e-001,-4.539450e-005
2.177500e-001,-4.652794e-005
2.180000e-001,-4.652794e-005
2.182500e-001,-4.733755e-005
2.185000e-001,-4.863292e-005
2.187500e-001,-5.106173e-005
2.190000e-001,-5.494784e-005
2.192500e-001,-5.883394e-005
2.195000e-001,-6.174852e-005
2.197500e-001,-6.531078e-005
2.200000e-001,-6.644423e-005
2.202500e-001,-6.741576e-005
2.205000e-001,-6.773959e-005
2.207500e-001,-6.709192e-005
2.210000e-001,-6.692999e-005
2.212500e-001,-6.741576e-005
2.215000e-001,-6.919688e-005
2.217500e-001,-7.065417e-005
2.220000e-001,-7.194954e-005
2.222500e-001,-7.178762e-005
2.225000e-001,-7.178762e-005
2.227500e-001,-7.130186e-005
2.230000e-001,-7.000649e-005
2.232500e-001,-6.822536e-005
2.235000e-001,-6.612039e-005
2.237500e-001,-6.450118e-005
2.240000e-001,-6.272005e-005
2.242500e-001,-6.158660e-005
2.245000e-001,-5.948163e-005
2.247500e-001,-5.834818e-005
2.250000e-001,-5.656705e-005
2.252500e-001,-5.430016e-005
2.255000e-001,-5.138558e-005
2.257500e-001,-4.847100e-005
2.260000e-001,-4.539450e-005
2.262500e-001,-4.247992e-005
2.265000e-001,-3.988919e-005
2.267500e-001,-3.762229e-005
2.270000e-001,-3.616500e-005
2.272500e-001,-3.438387e-005
2.275000e-001,-3.211697e-005
2.277500e-001,-3.017392e-005
2.280000e-001,-2.742127e-005
2.282500e-001,-2.515437e-005
2.285000e-001,-2.304940e-005
2.287500e-001,-2.110635e-005
2.290000e-001,-1.932521e-005
2.292500e-001,-1.738216e-005
2.295000e-001,-1.511527e-005
2.297500e-001,-1.414374e-005
2.300000e-001,-1.333414e-005
2.302500e-001,-1.268645e-005
2.305000e-001,-1.155301e-005
2.307500e-001,-1.074340e-005
2.310000e-001,-9.933796e-006
2.312500e-001,-8.800349e-006
2.315000e-001,-7.666902e-006
2.317500e-001,-7.343060e-006
2.320000e-001,-6.209613e-006
2.322500e-001,-5.723850e-006
2.325000e-001,-5.400008e-006
2.327500e-001,-4.752324e-006
2.330000e-001,-6.209613e-006
2.332500e-001,-7.181139e-006
2.335000e-001,-8.638428e-006
2.337500e-001,-9.448033e-006
2.340000e-001,-1.009572e-005
2.342500e-001,-1.041956e-005
2.345000e-001,-1.090532e-005
2.347500e-001,-1.236261e-005
2.350000e-001,-1.495335e-005
2.352500e-001,-1.770600e-005
2.355000e-001,-2.029674e-005
2.357500e-001,-2.272556e-005
2.360000e-001,-2.418285e-005
2.362500e-001,-2.661166e-005
2.365000e-001,-2.855471e-005
2.367500e-001,-3.146929e-005
2.370000e-001,-3.373619e-005
2.372500e-001,-3.600308e-005
2.375000e-001,-3.794613e-005
2.377500e-001,-3.907958e-005
2.380000e-001,-4.086071e-005
2.382500e-001,-4.264184e-005
2.385000e-001,-4.539450e-005
2.387500e-001,-4.782331e-005
2.390000e-001,-5.073789e-005
2.392500e-001,-5.332863e-005
2.395000e-001,-5.494784e-005
2.397500e-001,-5.689089e-005
2.400000e-001,-5.899587e-005
2.402500e-001,-5.996739e-005
2.405000e-001,-6.142468e-005
2.407500e-001,-6.336773e-005
2.410000e-001,-6.547270e-005
2.412500e-001,-6.741576e-005
2.415000e-001,-6.887304e-005
2.417500e-001,-6.871112e-005
2.420000e-001,-6.854921e-005
2.422500e-001,-6.854921e-005
2.425000e-001,-6.935881e-005
2.427500e-001,-6.968265e-005
2.430000e-001,-6.903497e-005
2.432500e-001,-6.757768e-005
2.435000e-001,-6.692999e-005
2.437500e-001,-6.595847e-005
2.440000e-001,-6.417734e-005
2.442500e-001,-6.239620e-005
2.445000e-001,-6.012931e-005
2.447500e-001,-5.721473e-005
2.450000e-001,-5.462399e-005
2.452500e-001,-5.203326e-005
2.455000e-001,-4.976636e-005
2.457500e-001,-4.733755e-005
2.460000e-001,-4.442297e-005
2.462500e-001,-4.069879e-005
2.465000e-001,-3.875573e-005
2.467500e-001,-3.713653e-005
2.470000e-001,-3.567924e-005
2.472500e-001,-3.406002e-005
2.475000e-001,-3.179313e-005
2.477500e-001,-2.920240e-005
2.480000e-001,-2.661166e-005
2.482500e-001,-2.434477e-005
2.485000e-001,-2.288748e-005
2.487500e-001,-2.126827e-005
2.490000e-001,-2.013482e-005
2.492500e-001,-1.883945e-005
2.495000e-001,-1.657256e-005
2.497500e-001,-1.414374e-005
2.500000e-001,-1.122916e-005
2.502500e-001,-9.448033e-006
2.505000e-001,-7.666902e-006
2.507500e-001,-6.695376e-006
2.510000e-001,-5.076166e-006
2.512500e-001,-4.104640e-006
2.515000e-001,-3.295035e-006
2.517500e-001,-2.971193e-006
2.520000e-001,-3.942719e-006
2.522500e-001,-4.914245e-006
2.525000e-001,-6.533455e-006
2.527500e-001,-7.828823e-006
2.530000e-001,-8.476507e-006
2.532500e-001,-8.638428e-006
2.535000e-001,-8.962270e-006
2.537500e-001,-9.286112e-006
2.540000e-001,-9.933796e-006
2.542500e-001,-1.025764e-005
2.545000e-001,-1.155301e-005
2.547500e-001,-1.398182e-005
2.550000e-001,-1.641064e-005
2.552500e-001,-1.981098e-005
2.555000e-001,-2.272556e-005
2.557500e-001,-2.580206e-005
2.560000e-001,-2.806895e-005
2.562500e-001,-2.952624e-005
2.565000e-001,-3.065968e-005
2.567500e-001,-3.163121e-005
2.570000e-001,-3.244082e-005
2.572500e-001,-3.373619e-005
2.575000e-001,-3.519348e-005
2.577500e-001,-3.713653e-005
2.580000e-001,-3.972726e-005
2.582500e-001,-4.215608e-005
2.585000e-001,-4.474682e-005
2.587500e-001,-4.847100e-005
2.590000e-001,-5.154750e-005
2.592500e-001,-5.527168e-005
2.595000e-001,-5.851010e-005
2.597500e-001,-6.061507e-005
2.600000e-001,-6.223428e-005
2.602500e-001,-6.304389e-005
2.605000e-001,-6.401541e-005
2.607500e-001,-6.466310e-005
2.610000e-001,-6.531078e-005
2.612500e-001,-6.644423e-005
2.615000e-001,-6.741576e-005
2.617500e-001,-6.741576e-005
2.620000e-001,-6.725383e-005
2.622500e-001,-6.612039e-005
2.625000e-001,-6.612039e-005
2.627500e-001,-6.660615e-005
2.630000e-001,-6.692999e-005
2.632500e-001,-6.757768e-005
2.635000e-001,-6.757768e-005
2.637500e-001,-6.692999e-005
2.640000e-001,-6.579654e-005
2.642500e-001,-6.401541e-005
2.645000e-001,-6.207236e-005
2.647500e-001,-5.931970e-005
2.650000e-001,-5.575744e-005
2.652500e-001,-5.235710e-005
2.655000e-001,-4.928060e-005
2.657500e-001,-4.636602e-005
2.660000e-001,-4.490873e-005
2.662500e-001,-4.409913e-005
2.665000e-001,-4.280376e-005
2.667500e-001,-4.086071e-005
2.670000e-001,-3.794613e-005
2.672500e-001,-3.503155e-005
2.675000e-001,-3.211697e-005
2.677500e-001,-2.936432e-005
2.680000e-001,-2.693550e-005
2.682500e-001,-2.564013e-005
2.685000e-001,-2.385900e-005
2.687500e-001,-2.223979e-005
2.690000e-001,-2.029674e-005
2.692500e-001,-1.883945e-005
2.695000e-001,-1.641064e-005
2.697500e-001,-1.511527e-005
2.700000e-001,-1.349606e-005
2.702500e-001,-1.365798e-005
2.705000e-001,-1.301030e-005
2.707500e-001,-1.252453e-005
2.710000e-001,-1.236261e-005
2.712500e-001,-1.349606e-005
2.715000e-001,-1.414374e-005
2.717500e-001,-1.462951e-005
2.720000e-001,-1.430566e-005
2.722500e-001,-1.301030e-005
2.725000e-001,-1.155301e-005
2.727500e-001,-9.609954e-006
2.730000e-001,-8.800349e-006
2.732500e-001,-8.314586e-006
2.735000e-001,-9.448033e-006
2.737500e-001,-1.074340e-005
2.740000e-001,-1.187685e-005
2.742500e-001,-1.301030e-005
2.745000e-001,-1.430566e-005
2.747500e-001,-1.560103e-005
2.750000e-001,-1.722024e-005
2.752500e-001,-1.819177e-005
2.755000e-001,-2.029674e-005
2.757500e-001,-2.256364e-005
2.760000e-001,-2.547821e-005
2.762500e-001,-2.904048e-005
2.765000e-001,-3.211697e-005
2.767500e-001,-3.438387e-005
2.770000e-001,-3.600308e-005
2.772500e-001,-3.778421e-005
2.775000e-001,-3.940342e-005
2.777500e-001,-4.021302e-005
2.780000e-001,-4.167031e-005
2.782500e-001,-4.361337e-005
2.785000e-001,-4.555642e-005
2.787500e-001,-4.798524e-005
2.790000e-001,-5.009021e-005
2.792500e-001,-5.073789e-005
2.795000e-001,-5.122365e-005
2.797500e-001,-5.268094e-005
2.800000e-001,-5.446207e-005
2.802500e-001,-5.802434e-005
2.805000e-001,-6.077699e-005
2.807500e-001,-6.336773e-005
2.810000e-001,-6.531078e-005
2.812500e-001,-6.531078e-005
2.815000e-001,-6.498694e-005
2.817500e-001,-6.466310e-005
2.820000e-001,-6.531078e-005
2.822500e-001,-6.579654e-005
2.825000e-001,-6.595847e-005
2.827500e-001,-6.595847e-005
2.830000e-001,-6.531078e-005
2.832500e-001,-6.433926e-005
2.835000e-001,-6.336773e-005
2.837500e-001,-6.336773e-005
2.840000e-001,-6.272005e-005
2.842500e-001,-6.126276e-005
2.845000e-001,-5.948163e-005
2.847500e-001,-5.802434e-005
2.850000e-001,-5.672897e-005
2.852500e-001,-5.510976e-005
2.855000e-001,-5.332863e-005
2.857500e-001,-5.089981e-005
2.860000e-001,-4.895676e-005
2.862500e-001,-4.620410e-005
2.865000e-001,-4.328952e-005
2.867500e-001,-4.053687e-005
2.870000e-001,-3.778421e-005
2.872500e-001,-3.470771e-005
2.875000e-001,-3.195505e-005
2.877500e-001,-2.936432e-005
2.880000e-001,-2.742127e-005
2.882500e-001,-2.547821e-005
2.885000e-001,-2.304940e-005
2.887500e-001,-2.013482e-005
2.890000e-001,-1.705832e-005
2.892500e-001,-1.495335e-005
2.895000e-001,-1.381990e-005
2.897500e-001,-1.187685e-005
2.900000e-001,-9.609954e-006
2.902500e-001,-7.343060e-006
2.905000e-001,-5.238086e-006
2.907500e-001,-5.076166e-006
2.910000e-001,-6.047692e-006
2.912500e-001,-7.181139e-006
2.915000e-001,-7.666902e-006
2.917500e-001,-8.476507e-006
2.920000e-001,-8.314586e-006
2.922500e-001,-9.448033e-006
2.925000e-001,-9.933796e-006
2.927500e-001,-1.139109e-005
2.930000e-001,-1.349606e-005
2.932500e-001,-1.608679e-005
2.935000e-001,-1.851561e-005
2.937500e-001,-2.029674e-005
2.940000e-001,-2.143019e-005
2.942500e-001,-2.240171e-005
2.945000e-001,-2.337324e-005
2.947500e-001,-2.466861e-005
2.950000e-001,-2.644974e-005
2.952500e-001,-2.774511e-005
2.955000e-001,-2.920240e-005
2.957500e-001,-3.082161e-005
2.960000e-001,-3.260274e-005
2.962500e-001,-3.503155e-005
2.965000e-001,-3.632692e-005
2.967500e-001,-3.875573e-005
2.970000e-001,-4.037495e-005
2.972500e-001,-4.231800e-005
2.975000e-001,-4.474682e-005
2.977500e-001,-4.636602e-005
2.980000e-001,-4.895676e-005
2.982500e-001,-5.170942e-005
2.985000e-001,-5.430016e-005
2.987500e-001,-5.608128e-005
2.990000e-001,-5.721473e-005
2.992500e-001,-5.705281e-005
2.995000e-001,-5.689089e-005
2.997500e-001,-5.705281e-005
3.000000e-001,-5.672897e-005
3.002500e-001,-5.656705e-005
3.005000e-001,-5.689089e-005
3.007500e-001,-5.689089e-005
3.010000e-001,-5.656705e-005
3.012500e-001,-5.689089e-005
3.015000e-001,-5.770049e-005
3.017500e-001,-5.834818e-005
3.020000e-001,-6.029123e-005
3.022500e-001,-6.093892e-005
3.025000e-001,-6.142468e-005
3.027500e-001,-6.045315e-005
3.030000e-001,-5.980547e-005
3.032500e-001,-5.915778e-005
3.035000e-001,-5.834818e-005
3.037500e-001,-5.834818e-005
3.040000e-001,-5.753857e-005
3.042500e-001,-5.640513e-005
3.045000e-001,-5.494784e-005
3.047500e-001,-5.316671e-005
3.050000e-001,-5.170942e-005
3.052500e-001,-5.057597e-005
3.055000e-001,-4.960444e-005
3.057500e-001,-4.847100e-005
3.060000e-001,-4.652794e-005
3.062500e-001,-4.328952e-005
3.065000e-001,-4.037495e-005
3.067500e-001,-3.697461e-005
3.070000e-001,-3.357426e-005
3.072500e-001,-3.098353e-005
3.075000e-001,-2.904048e-005
3.077500e-001,-2.725934e-005
3.080000e-001,-2.564013e-005
3.082500e-001,-2.223979e-005
3.085000e-001,-1.883945e-005
3.087500e-001,-1.462951e-005
3.090000e-001,-1.187685e-005
3.092500e-001,-1.009572e-005
3.095000e-001,-8.314586e-006
3.097500e-001,-7.343060e-006
3.100000e-001,-6.209613e-006
3.102500e-001,-5.238086e-006
3.105000e-001,-4.266561e-006
3.107500e-001,-3.780798e-006
3.110000e-001,-3.456956e-006
3.112500e-001,-4.104640e-006
3.115000e-001,-4.914245e-006
3.117500e-001,-6.857297e-006
3.120000e-001,-8.800349e-006
3.122500e-001,-9.933796e-006
3.125000e-001,-9.609954e-006
3.127500e-001,-9.609954e-006
3.130000e-001,-1.009572e-005
3.132500e-001,-1.139109e-005
3.135000e-001,-1.349606e-005
3.137500e-001,-1.641064e-005
3.140000e-001,-1.883945e-005
3.142500e-001,-2.191595e-005
3.145000e-001,-2.434477e-005
3.147500e-001,-2.742127e-005
3.150000e-001,-2.936432e-005
3.152500e-001,-3.130737e-005
3.155000e-001,-3.308850e-005
3.157500e-001,-3.486963e-005
3.160000e-001,-3.551731e-005
3.162500e-001,-3.665076e-005
3.165000e-001,-3.729845e-005
3.167500e-001,-3.859381e-005
3.170000e-001,-3.988919e-005
3.172500e-001,-4.167031e-005
3.175000e-001,-4.361337e-005
3.177500e-001,-4.604218e-005
3.180000e-001,-4.749947e-005
3.182500e-001,-4.928060e-005
3.185000e-001,-5.041405e-005
3.187500e-001,-5.138558e-005
3.190000e-001,-5.235710e-005
3.192500e-001,-5.316671e-005
3.195000e-001,-5.430016e-005
3.197500e-001,-5.705281e-005
3.200000e-001,-5.980547e-005
3.202500e-001,-6.239620e-005
3.205000e-001,-6.336773e-005
3.207500e-001,-6.336773e-005
3.210000e-001,-6.191044e-005
3.212500e-001,-6.126276e-005
3.215000e-001,-6.126276e-005
3.217500e-001,-6.223428e-005
3.220000e-001,-6.336773e-005
3.222500e-001,-6.482501e-005
3.225000e-001,-6.466310e-005
3.227500e-001,-6.369157e-005
3.230000e-001,-6.239620e-005
3.232500e-001,-5.996739e-005
3.235000e-001,-5.883394e-005
3.237500e-001,-5.689089e-005
3.240000e-001,-5.575744e-005
3.242500e-001,-5.381439e-005
3.245000e-001,-5.219518e-005
3.247500e-001,-4.960444e-005
3.250000e-001,-4.668987e-005
3.252500e-001,-4.409913e-005
3.255000e-001,-4.296568e-005
3.257500e-001,-4.150839e-005
3.260000e-001,-4.053687e-005
3.262500e-001,-3.956534e-005
3.265000e-001,-3.794613e-005
3.267500e-001,-3.567924e-005
3.270000e-001,-3.227890e-005
3.272500e-001,-2.806895e-005
3.275000e-001,-2.385900e-005
3.277500e-001,-2.094442e-005
3.280000e-001,-1.802985e-005
3.282500e-001,-1.576295e-005
3.285000e-001,-1.381990e-005
3.287500e-001,-1.236261e-005
3.290000e-001,-1.171493e-005
3.292500e-001,-1.058148e-005
3.295000e-001,-9.609954e-006
3.297500e-001,-9.286112e-006
3.300000e-001,-8.800349e-006
3.302500e-001,-7.990744e-006
3.305000e-001,-8.314586e-006
3.307500e-001,-8.800349e-006
3.310000e-001,-9.448033e-006
3.312500e-001,-9.448033e-006
3.315000e-001,-8.800349e-006
3.317500e-001,-8.152665e-006
3.320000e-001,-7.181139e-006
3.322500e-001,-7.504981e-006
3.325000e-001,-9.124191e-006
3.327500e-001,-1.139109e-005
3.330000e-001,-1.398182e-005
3.332500e-001,-1.560103e-005
3.335000e-001,-1.754408e-005
3.337500e-001,-1.900137e-005
3.340000e-001,-1.981098e-005
3.342500e-001,-2.029674e-005
3.345000e-001,-2.191595e-005
3.347500e-001,-2.402092e-005
3.350000e-001,-2.612590e-005
3.352500e-001,-2.904048e-005
3.355000e-001,-3.179313e-005
3.357500e-001,-3.373619e-005
3.360000e-001,-3.535540e-005
3.362500e-001,-3.713653e-005
3.365000e-001,-3.843190e-005
3.367500e-001,-4.037495e-005
3.370000e-001,-4.247992e-005
3.372500e-001,-4.458489e-005
3.375000e-001,-4.685179e-005
3.377500e-001,-4.895676e-005
3.380000e-001,-5.122365e-005
3.382500e-001,-5.316671e-005
3.385000e-001,-5.575744e-005
3.387500e-001,-5.770049e-005
3.390000e-001,-5.948163e-005
3.392500e-001,-6.191044e-005
3.395000e-001,-6.320581e-005
3.397500e-001,-6.482501e-005
3.400000e-001,-6.660615e-005
3.402500e-001,-6.952073e-005
3.405000e-001,-7.194954e-005
3.407500e-001,-7.437836e-005
3.410000e-001,-7.518796e-005
3.412500e-001,-7.534988e-005
3.415000e-001,-7.551181e-005
3.417500e-001,-7.551181e-005
3.420000e-001,-7.583565e-005
3.422500e-001,-7.534988e-005
3.425000e-001,-7.486413e-005
3.427500e-001,-7.389260e-005
3.430000e-001,-7.178762e-005
3.432500e-001,-6.968265e-005
3.435000e-001,-6.709192e-005
3.437500e-001,-6.547270e-005
3.440000e-001,-6.288196e-005
3.442500e-001,-5.980547e-005
3.445000e-001,-5.624321e-005
3.447500e-001,-5.219518e-005
3.450000e-001,-4.830907e-005
3.452500e-001,-4.507065e-005
3.455000e-001,-4.215608e-005
3.457500e-001,-3.956534e-005
3.460000e-001,-3.681268e-005
3.462500e-001,-3.406002e-005
3.465000e-001,-3.001200e-005
3.467500e-001,-2.612590e-005
3.470000e-001,-2.223979e-005
3.472500e-001,-1.835369e-005
3.475000e-001,-1.495335e-005
3.477500e-001,-1.122916e-005
3.480000e-001,-9.286112e-006
3.482500e-001,-8.314586e-006
3.485000e-001,-7.666902e-006
3.487500e-001,-8.152665e-006
3.490000e-001,-8.638428e-006
3.492500e-001,-9.933796e-006
3.495000e-001,-1.058148e-005
3.497500e-001,-1.122916e-005
3.500000e-001,-1.090532e-005
3.502500e-001,-1.009572e-005
3.505000e-001,-9.448033e-006
3.507500e-001,-8.314586e-006
3.510000e-001,-8.152665e-006
3.512500e-001,-7.666902e-006
3.515000e-001,-7.343060e-006
3.517500e-001,-7.828823e-006
3.520000e-001,-8.962270e-006
3.522500e-001,-9.448033e-006
3.525000e-001,-1.025764e-005
3.527500e-001,-1.155301e-005
3.530000e-001,-1.252453e-005
3.532500e-001,-1.446759e-005
3.535000e-001,-1.657256e-005
3.537500e-001,-1.835369e-005
3.540000e-001,-2.045866e-005
3.542500e-001,-2.207787e-005
3.545000e-001,-2.369708e-005
3.547500e-001,-2.499245e-005
3.550000e-001,-2.612590e-005
3.552500e-001,-2.742127e-005
3.555000e-001,-2.968816e-005
3.557500e-001,-3.163121e-005
3.560000e-001,-3.292658e-005
3.562500e-001,-3.454579e-005
3.565000e-001,-3.584116e-005
3.567500e-001,-3.697461e-005
3.570000e-001,-3.859381e-005
3.572500e-001,-4.118455e-005
3.575000e-001,-4.312760e-005
3.577500e-001,-4.474682e-005
3.580000e-001,-4.636602e-005
3.582500e-001,-4.717563e-005
3.585000e-001,-4.879484e-005
3.587500e-001,-5.089981e-005
3.590000e-001,-5.235710e-005
3.592500e-001,-5.446207e-005
3.595000e-001,-5.689089e-005
3.597500e-001,-5.931970e-005
3.600000e-001,-6.110084e-005
3.602500e-001,-6.239620e-005
3.605000e-001,-6.304389e-005
3.607500e-001,-6.385349e-005
3.610000e-001,-6.482501e-005
3.612500e-001,-6.579654e-005
3.615000e-001,-6.644423e-005
3.617500e-001,-6.790152e-005
3.620000e-001,-6.919688e-005
3.622500e-001,-7.097802e-005
3.625000e-001,-7.211146e-005
3.627500e-001,-7.211146e-005
3.630000e-001,-7.016841e-005
3.632500e-001,-6.773959e-005
3.635000e-001,-6.498694e-005
3.637500e-001,-6.158660e-005
3.640000e-001,-5.867202e-005
3.642500e-001,-5.559552e-005
3.645000e-001,-5.284286e-005
3.647500e-001,-5.106173e-005
3.650000e-001,-4.976636e-005
3.652500e-001,-4.830907e-005
3.655000e-001,-4.620410e-005
3.657500e-001,-4.377529e-005
3.660000e-001,-4.021302e-005
3.662500e-001,-3.648884e-005
3.665000e-001,-3.227890e-005
3.667500e-001,-2.936432e-005
3.670000e-001,-2.693550e-005
3.672500e-001,-2.450669e-005
3.675000e-001,-2.159211e-005
3.677500e-001,-1.867753e-005
3.680000e-001,-1.608679e-005
3.682500e-001,-1.349606e-005
3.685000e-001,-1.220069e-005
3.687500e-001,-1.090532e-005
3.690000e-001,-9.771876e-006
3.692500e-001,-8.152665e-006
3.695000e-001,-6.209613e-006
3.697500e-001,-4.428482e-006
3.700000e-001,-4.104640e-006
3.702500e-001,-3.942719e-006
3.705000e-001,-4.428482e-006
3.707500e-001,-4.590403e-006
3.710000e-001,-5.076166e-006
3.712500e-001,-4.104640e-006
3.715000e-001,-4.104640e-006
3.717500e-001,-5.400008e-006
3.720000e-001,-6.695376e-006
3.722500e-001,-8.962270e-006
3.725000e-001,-1.025764e-005
3.727500e-001,-1.090532e-005
3.730000e-001,-1.155301e-005
3.732500e-001,-1.155301e-005
3.735000e-001,-1.252453e-005
3.737500e-001,-1.446759e-005
3.740000e-001,-1.705832e-005
3.742500e-001,-1.916330e-005
3.745000e-001,-2.126827e-005
3.747500e-001,-2.321132e-005
3.750000e-001,-2.499245e-005
3.752500e-001,-2.628782e-005
3.755000e-001,-2.709742e-005
3.757500e-001,-2.758319e-005
3.760000e-001,-2.871663e-005
3.762500e-001,-3.033584e-005
3.765000e-001,-3.227890e-005
3.767500e-001,-3.470771e-005
3.770000e-001,-3.778421e-005
3.772500e-001,-4.086071e-005
3.775000e-001,-4.426105e-005
3.777500e-001,-4.685179e-005
3.780000e-001,-4.847100e-005
3.782500e-001,-5.041405e-005
3.785000e-001,-5.106173e-005
3.787500e-001,-5.284286e-005
3.790000e-001,-5.494784e-005
3.792500e-001,-5.883394e-005
3.795000e-001,-6.304389e-005
3.797500e-001,-6.676807e-005
3.800000e-001,-6.919688e-005
3.802500e-001,-7.065417e-005
3.805000e-001,-7.162570e-005
3.807500e-001,-7.211146e-005
3.810000e-001,-7.308299e-005
3.812500e-001,-7.259723e-005
3.815000e-001,-7.194954e-005
3.817500e-001,-7.162570e-005
3.820000e-001,-7.146378e-005
3.822500e-001,-7.146378e-005
3.825000e-001,-7.178762e-005
3.827500e-001,-7.178762e-005
3.830000e-001,-7.113993e-005
3.832500e-001,-6.935881e-005
3.835000e-001,-6.595847e-005
3.837500e-001,-6.093892e-005
3.840000e-001,-5.737665e-005
3.842500e-001,-5.430016e-005
3.845000e-001,-5.203326e-005
3.847500e-001,-5.057597e-005
3.850000e-001,-4.911868e-005
3.852500e-001,-4.701371e-005
3.855000e-001,-4.377529e-005
3.857500e-001,-4.037495e-005
3.860000e-001,-3.681268e-005
3.862500e-001,-3.422195e-005
3.865000e-001,-3.146929e-005
3.867500e-001,-2.839279e-005
3.870000e-001,-2.564013e-005
3.872500e-001,-2.353516e-005
3.875000e-001,-2.223979e-005
3.877500e-001,-2.159211e-005
3.880000e-001,-2.013482e-005
3.882500e-001,-1.802985e-005
3.885000e-001,-1.608679e-005
3.887500e-001,-1.446759e-005
3.890000e-001,-1.268645e-005
3.892500e-001,-1.301030e-005
3.895000e-001,-1.349606e-005
3.897500e-001,-1.381990e-005
3.900000e-001,-1.430566e-005
3.902500e-001,-1.284837e-005
3.905000e-001,-1.236261e-005
3.907500e-001,-1.284837e-005
3.910000e-001,-1.252453e-005
3.912500e-001,-1.268645e-005
3.915000e-001,-1.349606e-005
3.917500e-001,-1.430566e-005
3.920000e-001,-1.576295e-005
3.922500e-001,-1.689640e-005
3.925000e-001,-1.786793e-005
3.927500e-001,-1.851561e-005
3.930000e-001,-1.948714e-005
3.932500e-001,-2.126827e-005
3.935000e-001,-2.272556e-005
3.937500e-001,-2.321132e-005
3.940000e-001,-2.321132e-005
3.942500e-001,-2.337324e-005
3.945000e-001,-2.385900e-005
3.947500e-001,-2.353516e-005
3.950000e-001,-2.321132e-005
3.952500e-001,-2.223979e-005
3.955000e-001,-2.126827e-005
3.957500e-001,-1.981098e-005
3.960000e-001,-1.867753e-005
3.962500e-001,-1.867753e-005
3.965000e-001,-1.916330e-005
3.967500e-001,-2.110635e-005
3.970000e-001,-2.385900e-005
3.972500e-001,-2.758319e-005
3.975000e-001,-3.195505e-005
3.977500e-001,-3.746037e-005
3.980000e-001,-4.296568e-005
3.982500e-001,-4.749947e-005
3.985000e-001,-5.138558e-005
3.987500e-001,-5.430016e-005
3.990000e-001,-5.753857e-005
3.992500e-001,-6.061507e-005
3.995000e-001,-6.320581e-005
3.997500e-001,-6.660615e-005
4.000000e-001,-6.935881e-005
4.002500e-001,-7.130186e-005
4.005000e-001,-7.259723e-005
4.007500e-001,-7.340683e-005
4.010000e-001,-7.292107e-005
4.012500e-001,-7.324491e-005
4.015000e-001,-7.308299e-005
4.017500e-001,-7.437836e-005
4.020000e-001,-7.518796e-005
4.022500e-001,-7.599757e-005
4.025000e-001,-7.534988e-005
4.027500e-001,-7.340683e-005
4.030000e-001,-7.146378e-005
4.032500e-001,-6.968265e-005
4.035000e-001,-6.741576e-005
4.037500e-001,-6.563462e-005
4.040000e-001,-6.288196e-005
4.042500e-001,-6.029123e-005
4.045000e-001,-5.705281e-005
4.047500e-001,-5.332863e-005
4.050000e-001,-5.089981e-005
4.052500e-001,-4.960444e-005
4.055000e-001,-4.798524e-005
4.057500e-001,-4.620410e-005
4.060000e-001,-4.296568e-005
4.062500e-001,-3.859381e-005
4.065000e-001,-3.325042e-005
4.067500e-001,-2.920240e-005
4.070000e-001,-2.418285e-005
4.072500e-001,-2.094442e-005
4.075000e-001,-1.786793e-005
4.077500e-001,-1.592487e-005
4.080000e-001,-1.414374e-005
4.082500e-001,-1.365798e-005
4.085000e-001,-1.301030e-005
4.087500e-001,-1.203877e-005
4.090000e-001,-1.025764e-005
4.092500e-001,-9.286112e-006
4.095000e-001,-8.476507e-006
4.097500e-001,-7.181139e-006
4.100000e-001,-6.533455e-006
4.102500e-001,-6.047692e-006
4.105000e-001,-6.371534e-006
4.107500e-001,-6.857297e-006
4.110000e-001,-8.314586e-006
4.112500e-001,-9.771876e-006
4.115000e-001,-1.090532e-005
4.117500e-001,-1.058148e-005
4.120000e-001,-1.106724e-005
4.122500e-001,-1.139109e-005
4.125000e-001,-1.268645e-005
4.127500e-001,-1.430566e-005
4.130000e-001,-1.592487e-005
4.132500e-001,-1.705832e-005
4.135000e-001,-1.786793e-005
4.137500e-001,-1.916330e-005
4.140000e-001,-2.143019e-005
4.142500e-001,-2.418285e-005
4.145000e-001,-2.644974e-005
4.147500e-001,-2.790703e-005
4.150000e-001,-2.920240e-005
4.152500e-001,-3.082161e-005
4.155000e-001,-3.211697e-005
4.157500e-001,-3.389810e-005
4.160000e-001,-3.616500e-005
4.162500e-001,-3.891766e-005
4.165000e-001,-4.037495e-005
4.167500e-001,-4.183224e-005
4.170000e-001,-4.393721e-005
4.172500e-001,-4.539450e-005
4.175000e-001,-4.717563e-005
4.177500e-001,-4.847100e-005
4.180000e-001,-4.976636e-005
4.182500e-001,-5.073789e-005
4.185000e-001,-5.170942e-005
4.187500e-001,-5.332863e-005
4.190000e-001,-5.543360e-005
4.192500e-001,-5.721473e-005
4.195000e-001,-5.834818e-005
4.197500e-001,-5.964355e-005
4.200000e-001,-5.980547e-005
4.202500e-001,-5.996739e-005
4.205000e-001,-6.045315e-005
4.207500e-001,-5.964355e-005
4.210000e-001,-6.045315e-005
4.212500e-001,-6.126276e-005
4.215000e-001,-6.191044e-005
4.217500e-001,-6.239620e-005
4.220000e-001,-6.255812e-005
4.222500e-001,-6.191044e-005
4.225000e-001,-6.142468e-005
4.227500e-001,-6.012931e-005
4.230000e-001,-5.867202e-005
4.232500e-001,-5.705281e-005
4.235000e-001,-5.640513e-005
4.237500e-001,-5.559552e-005
4.240000e-001,-5.381439e-005
4.242500e-001,-5.187134e-005
4.245000e-001,-4.911868e-005
4.247500e-001,-4.588026e-005
4.250000e-001,-4.312760e-005
4.252500e-001,-4.086071e-005
4.255000e-001,-3.940342e-005
4.257500e-001,-3.826997e-005
4.260000e-001,-3.681268e-005
4.262500e-001,-3.438387e-005
4.265000e-001,-3.130737e-005
4.267500e-001,-2.871663e-005
4.270000e-001,-2.612590e-005
4.272500e-001,-2.418285e-005
4.275000e-001,-2.304940e-005
4.277500e-001,-2.143019e-005
4.280000e-001,-1.948714e-005
4.282500e-001,-1.641064e-005
4.285000e-001,-1.430566e-005
4.287500e-001,-1.171493e-005
4.290000e-001,-9.448033e-006
4.292500e-001,-7.666902e-006
4.295000e-001,-6.533455e-006
4.297500e-001,-7.343060e-006
4.300000e-001,-7.990744e-006
4.302500e-001,-9.124191e-006
4.305000e-001,-9.933796e-006
4.307500e-001,-9.771876e-006
4.310000e-001,-9.771876e-006
4.312500e-001,-9.933796e-006
4.315000e-001,-1.106724e-005
4.317500e-001,-1.301030e-005
4.320000e-001,-1.527719e-005
4.322500e-001,-1.722024e-005
4.325000e-001,-1.948714e-005
4.327500e-001,-2.013482e-005
4.330000e-001,-2.013482e-005
4.332500e-001,-1.964906e-005
4.335000e-001,-1.981098e-005
4.337500e-001,-1.932521e-005
4.340000e-001,-2.013482e-005
4.342500e-001,-2.029674e-005
4.345000e-001,-2.159211e-005
4.347500e-001,-2.353516e-005
4.350000e-001,-2.531629e-005
4.352500e-001,-2.661166e-005
4.355000e-001,-2.839279e-005
4.357500e-001,-3.017392e-005
4.360000e-001,-3.146929e-005
4.362500e-001,-3.179313e-005
4.365000e-001,-3.163121e-005
4.367500e-001,-3.244082e-005
4.370000e-001,-3.470771e-005
4.372500e-001,-3.746037e-005
4.375000e-001,-4.102263e-005
4.377500e-001,-4.377529e-005
4.380000e-001,-4.717563e-005
4.382500e-001,-4.960444e-005
4.385000e-001,-5.187134e-005
4.387500e-001,-5.349055e-005
4.390000e-001,-5.413823e-005
4.392500e-001,-5.543360e-005
4.395000e-001,-5.721473e-005
4.397500e-001,-6.045315e-005
4.400000e-001,-6.385349e-005
4.402500e-001,-6.692999e-005
4.405000e-001,-6.984457e-005
4.407500e-001,-7.113993e-005
4.410000e-001,-7.243531e-005
4.412500e-001,-7.324491e-005
4.415000e-001,-7.437836e-005
4.417500e-001,-7.502604e-005
4.420000e-001,-7.567373e-005
4.422500e-001,-7.551181e-005
4.425000e-001,-7.470220e-005
4.427500e-001,-7.356876e-005
4.430000e-001,-7.194954e-005
4.432500e-001,-6.903497e-005
4.435000e-001,-6.579654e-005
4.437500e-001,-6.191044e-005
4.440000e-001,-5.786242e-005
4.442500e-001,-5.430016e-005
4.445000e-001,-5.138558e-005
4.447500e-001,-4.847100e-005
4.450000e-001,-4.668987e-005
4.452500e-001,-4.490873e-005
4.455000e-001,-4.264184e-005
4.457500e-001,-3.940342e-005
4.460000e-001,-3.584116e-005
4.462500e-001,-3.179313e-005
4.465000e-001,-2.855471e-005
4.467500e-001,-2.693550e-005
4.470000e-001,-2.515437e-005
4.472500e-001,-2.304940e-005
4.475000e-001,-2.078250e-005
4.477500e-001,-1.802985e-005
4.480000e-001,-1.479143e-005
4.482500e-001,-1.220069e-005
4.485000e-001,-9.448033e-006
4.487500e-001,-9.286112e-006
4.490000e-001,-9.124191e-006
4.492500e-001,-9.286112e-006
4.495000e-001,-1.025764e-005
4.497500e-001,-1.041956e-005
4.500000e-001,-1.025764e-005
4.502500e-001,-9.771876e-006
4.505000e-001,-8.962270e-006
4.507500e-001,-9.933796e-006
4.510000e-001,-1.041956e-005
4.512500e-001,-1.155301e-005
4.515000e-001,-1.301030e-005
4.517500e-001,-1.430566e-005
4.520000e-001,-1.430566e-005
4.522500e-001,-1.479143e-005
4.525000e-001,-1.414374e-005
4.527500e-001,-1.479143e-005
4.530000e-001,-1.592487e-005
4.532500e-001,-1.738216e-005
4.535000e-001,-1.964906e-005
4.537500e-001,-2.126827e-005
4.540000e-001,-2.272556e-005
4.542500e-001,-2.418285e-005
4.545000e-001,-2.580206e-005
4.547500e-001,-2.677358e-005
4.550000e-001,-2.823087e-005
4.552500e-001,-2.968816e-005
4.555000e-001,-3.114545e-005
4.557500e-001,-3.211697e-005
4.560000e-001,-3.260274e-005
4.562500e-001,-3.292658e-005
4.565000e-001,-3.422195e-005
4.567500e-001,-3.632692e-005
4.570000e-001,-3.972726e-005
4.572500e-001,-4.377529e-005
4.575000e-001,-4.685179e-005
4.577500e-001,-4.976636e-005
4.580000e-001,-5.187134e-005
4.582500e-001,-5.365247e-005
4.585000e-001,-5.494784e-005
4.587500e-001,-5.608128e-005
4.590000e-001,-5.818626e-005
4.592500e-001,-6.029123e-005
4.595000e-001,-6.239620e-005
4.597500e-001,-6.433926e-005
4.600000e-001,-6.482501e-005
4.602500e-001,-6.401541e-005
4.605000e-001,-6.352965e-005
4.607500e-001,-6.336773e-005
4.610000e-001,-6.450118e-005
4.612500e-001,-6.628231e-005
4.615000e-001,-6.773959e-005
4.617500e-001,-6.854921e-005
4.620000e-001,-6.822536e-005
4.622500e-001,-6.725383e-005
4.625000e-001,-6.514887e-005
4.627500e-001,-6.336773e-005
4.630000e-001,-6.142468e-005
4.632500e-001,-5.883394e-005
4.635000e-001,-5.689089e-005
4.637500e-001,-5.527168e-005
4.640000e-001,-5.349055e-005
4.642500e-001,-5.268094e-005
4.645000e-001,-5.154750e-005
4.647500e-001,-4.976636e-005
4.650000e-001,-4.782331e-005
4.652500e-001,-4.539450e-005
4.655000e-001,-4.264184e-005
4.657500e-001,-4.021302e-005
4.660000e-001,-3.826997e-005
4.662500e-001,-3.551731e-005
4.665000e-001,-3.276466e-005
4.667500e-001,-2.968816e-005
4.670000e-001,-2.628782e-005
4.672500e-001,-2.321132e-005
4.675000e-001,-2.029674e-005
4.677500e-001,-1.819177e-005
4.680000e-001,-1.673448e-005
4.682500e-001,-1.527719e-005
4.685000e-001,-1.414374e-005
4.687500e-001,-1.187685e-005
4.690000e-001,-1.041956e-005
4.692500e-001,-9.448033e-006
4.695000e-001,-1.041956e-005
4.697500e-001,-1.106724e-005
4.700000e-001,-1.106724e-005
4.702500e-001,-1.009572e-005
4.705000e-001,-9.124191e-006
4.707500e-001,-7.666902e-006
4.710000e-001,-5.723850e-006
4.712500e-001,-5.238086e-006
4.715000e-001,-5.723850e-006
4.717500e-001,-7.666902e-006
4.720000e-001,-9.124191e-006
4.722500e-001,-1.041956e-005
4.725000e-001,-1.058148e-005
4.727500e-001,-1.171493e-005
4.730000e-001,-1.268645e-005
4.732500e-001,-1.398182e-005
4.735000e-001,-1.495335e-005
4.737500e-001,-1.657256e-005
4.740000e-001,-1.802985e-005
4.742500e-001,-1.932521e-005
4.745000e-001,-2.094442e-005
4.747500e-001,-2.321132e-005
4.750000e-001,-2.596398e-005
4.752500e-001,-2.855471e-005
4.755000e-001,-3.033584e-005
4.757500e-001,-3.211697e-005
4.760000e-001,-3.308850e-005
4.762500e-001,-3.438387e-005
4.765000e-001,-3.600308e-005
4.767500e-001,-3.778421e-005
4.770000e-001,-4.037495e-005
4.772500e-001,-4.264184e-005
4.775000e-001,-4.555642e-005
4.777500e-001,-4.847100e-005
4.780000e-001,-5.251902e-005
4.782500e-001,-5.527168e-005
4.785000e-001,-5.737665e-005
4.787500e-001,-5.867202e-005
4.790000e-001,-6.029123e-005
4.792500e-001,-6.223428e-005
4.795000e-001,-6.417734e-005
4.797500e-001,-6.563462e-005
4.800000e-001,-6.757768e-005
4.802500e-001,-6.903497e-005
4.805000e-001,-7.049226e-005
4.807500e-001,-7.113993e-005
4.810000e-001,-7.130186e-005
4.812500e-001,-7.259723e-005
4.815000e-001,-7.308299e-005
4.817500e-001,-7.373068e-005
4.820000e-001,-7.308299e-005
4.822500e-001,-7.259723e-005
4.825000e-001,-7.227338e-005
4.827500e-001,-7.097802e-005
4.830000e-001,-6.903497e-005
4.832500e-001,-6.676807e-005
4.835000e-001,-6.385349e-005
4.837500e-001,-6.077699e-005
4.840000e-001,-5.721473e-005
4.842500e-001,-5.413823e-005
4.845000e-001,-5.154750e-005
4.847500e-001,-4.992829e-005
4.850000e-001,-4.782331e-005
4.852500e-001,-4.588026e-005
4.855000e-001,-4.426105e-005
4.857500e-001,-4.150839e-005
4.860000e-001,-3.891766e-005
4.862500e-001,-3.632692e-005
4.865000e-001,-3.260274e-005
4.867500e-001,-2.904048e-005
4.870000e-001,-2.596398e-005
4.872500e-001,-2.337324e-005
4.875000e-001,-2.191595e-005
4.877500e-001,-2.029674e-005
4.880000e-001,-1.900137e-005
4.882500e-001,-1.754408e-005
4.885000e-001,-1.479143e-005
4.887500e-001,-1.187685e-005
4.890000e-001,-8.638428e-006
4.892500e-001,-6.533455e-006
4.895000e-001,-5.238086e-006
4.897500e-001,-5.238086e-006
4.900000e-001,-4.752324e-006
4.902500e-001,-4.590403e-006
4.905000e-001,-3.618877e-006
4.907500e-001,-3.133114e-006
4.910000e-001,-3.618877e-006
4.912500e-001,-4.104640e-006
4.915000e-001,-4.428482e-006
4.917500e-001,-4.590403e-006
4.920000e-001,-4.914245e-006
4.922500e-001,-5.400008e-006
4.925000e-001,-6.533455e-006
4.927500e-001,-7.019218e-006
4.930000e-001,-8.314586e-006
4.932500e-001,-1.025764e-005
4.935000e-001,-1.252453e-005
4.937500e-001,-1.398182e-005
4.940000e-001,-1.560103e-005
4.942500e-001,-1.705832e-005
4.945000e-001,-1.867753e-005
4.947500e-001,-1.997290e-005
4.950000e-001,-2.223979e-005
4.952500e-001,-2.450669e-005
4.955000e-001,-2.725934e-005
4.957500e-001,-3.017392e-005
4.960000e-001,-3.227890e-005
4.962500e-001,-3.454579e-005
4.965000e-001,-3.584116e-005
4.967500e-001,-3.746037e-005
4.970000e-001,-3.907958e-005
4.972500e-001,-4.102263e-005
4.975000e-001,-4.328952e-005
4.977500e-001,-4.571834e-005
4.980000e-001,-4.798524e-005
4.982500e-001,-5.187134e-005
4.985000e-001,-5.559552e-005
4.987500e-001,-5.883394e-005
4.990000e-001,-6.142468e-005
4.992500e-001,-6.320581e-005
4.995000e-001,-6.563462e-005
4.997500e-001,-6.660615e-005
5.000000e-001,-6.822536e-005
5.002500e-001,-6.887304e-005
5.005000e-001,-6.952073e-005
5.007500e-001,-7.049226e-005
5.010000e-001,-7.033033e-005
5.012500e-001,-7.033033e-005
5.015000e-001,-6.984457e-005
5.017500e-001,-6.968265e-005
5.020000e-001,-7.049226e-005
5.022500e-001,-7.113993e-005
5.025000e-001,-7.162570e-005
5.027500e-001,-7.146378e-005
5.030000e-001,-6.968265e-005
5.032500e-001,-6.692999e-005
5.035000e-001,-6.369157e-005
5.037500e-001,-5.996739e-005
5.040000e-001,-5.624321e-005
5.042500e-001,-5.316671e-005
5.045000e-001,-5.138558e-005
5.047500e-001,-5.041405e-005
5.050000e-001,-4.911868e-005
5.052500e-001,-4.604218e-005
5.055000e-001,-4.328952e-005
5.057500e-001,-4.021302e-005
5.060000e-001,-3.729845e-005
5.062500e-001,-3.341234e-005
5.065000e-001,-3.049776e-005
5.067500e-001,-2.823087e-005
5.070000e-001,-2.709742e-005
5.072500e-001,-2.612590e-005
5.075000e-001,-2.596398e-005
5.077500e-001,-2.547821e-005
5.080000e-001,-2.385900e-005
5.082500e-001,-2.240171e-005
5.085000e-001,-2.062058e-005
5.087500e-001,-1.851561e-005
5.090000e-001,-1.738216e-005
5.092500e-001,-1.705832e-005
5.095000e-001,-1.673448e-005
5.097500e-001,-1.624872e-005
5.100000e-001,-1.560103e-005
5.102500e-001,-1.333414e-005
5.105000e-001,-1.009572e-005
5.107500e-001,-7.343060e-006
5.110000e-001,-4.590403e-006
5.112500e-001,-2.323509e-006
5.115000e-001,-1.675824e-006
5.117500e-001,-1.028140e-006
5.120000e-001,-8.662195e-007
5.122500e-001,-5.423774e-007
5.125000e-001,-1.837745e-006
5.127500e-001,-3.133114e-006
5.130000e-001,-4.752324e-006
5.132500e-001,-6.857297e-006
5.135000e-001,-9.286112e-006
5.137500e-001,-1.220069e-005
5.140000e-001,-1.576295e-005
5.142500e-001,-2.013482e-005
5.145000e-001,-2.369708e-005
5.147500e-001,-2.758319e-005
5.150000e-001,-3.017392e-005
5.152500e-001,-3.195505e-005
5.155000e-001,-3.341234e-005
5.157500e-001,-3.422195e-005
5.160000e-001,-3.616500e-005
5.162500e-001,-3.778421e-005
5.165000e-001,-3.940342e-005
5.167500e-001,-4.134647e-005
5.170000e-001,-4.393721e-005
5.172500e-001,-4.652794e-005
5.175000e-001,-4.879484e-005
5.177500e-001,-5.057597e-005
5.180000e-001,-5.203326e-005
5.182500e-001,-5.284286e-005
5.185000e-001,-5.397631e-005
5.187500e-001,-5.559552e-005
5.190000e-001,-5.737665e-005
5.192500e-001,-5.996739e-005
5.195000e-001,-6.255812e-005
5.197500e-001,-6.498694e-005
5.200000e-001,-6.676807e-005
5.202500e-001,-6.871112e-005
5.205000e-001,-7.049226e-005
5.207500e-001,-7.259723e-005
5.210000e-001,-7.356876e-005
5.212500e-001,-7.470220e-005
5.215000e-001,-7.421643e-005
5.217500e-001,-7.356876e-005
5.220000e-001,-7.243531e-005
5.222500e-001,-7.065417e-005
5.225000e-001,-6.903497e-005
5.227500e-001,-6.757768e-005
5.230000e-001,-6.644423e-005
5.232500e-001,-6.433926e-005
5.235000e-001,-6.255812e-005
5.237500e-001,-6.110084e-005
5.240000e-001,-5.899587e-005
5.242500e-001,-5.689089e-005
5.245000e-001,-5.462399e-005
5.247500e-001,-5.251902e-005
5.250000e-001,-4.911868e-005
5.252500e-001,-4.555642e-005
5.255000e-001,-4.264184e-005
5.257500e-001,-3.956534e-005
5.260000e-001,-3.600308e-005
5.262500e-001,-3.308850e-005
5.265000e-001,-3.033584e-005
5.267500e-001,-2.725934e-005
5.270000e-001,-2.418285e-005
5.272500e-001,-2.078250e-005
5.275000e-001,-1.835369e-005
5.277500e-001,-1.543911e-005
5.280000e-001,-1.349606e-005
5.282500e-001,-1.106724e-005
5.285000e-001,-9.771876e-006
5.287500e-001,-8.152665e-006
5.290000e-001,-6.857297e-006
5.292500e-001,-5.561929e-006
5.295000e-001,-4.914245e-006
5.297500e-001,-4.752324e-006
5.300000e-001,-4.914245e-006
5.302500e-001,-4.428482e-006
5.305000e-001,-3.942719e-006
5.307500e-001,-3.618877e-006
5.310000e-001,-2.809272e-006
5.312500e-001,-1.999666e-006
5.315000e-001,-2.485430e-006
5.317500e-001,-3.133114e-006
5.320000e-001,-5.238086e-006
5.322500e-001,-7.181139e-006
5.325000e-001,-1.009572e-005
5.327500e-001,-1.236261e-005
5.330000e-001,-1.462951e-005
5.332500e-001,-1.608679e-005
5.335000e-001,-1.786793e-005
5.337500e-001,-1.867753e-005
5.340000e-001,-1.997290e-005
5.342500e-001,-2.159211e-005
5.345000e-001,-2.337324e-005
5.347500e-001,-2.547821e-005
5.350000e-001,-2.709742e-005
5.352500e-001,-2.887855e-005
5.355000e-001,-3.098353e-005
5.357500e-001,-3.325042e-005
5.360000e-001,-3.616500e-005
5.362500e-001,-3.729845e-005
5.365000e-001,-3.810805e-005
5.367500e-001,-3.907958e-005
5.370000e-001,-3.972726e-005
5.372500e-001,-4.199416e-005
5.375000e-001,-4.507065e-005
5.377500e-001,-4.830907e-005
5.380000e-001,-5.187134e-005
5.382500e-001,-5.478592e-005
5.385000e-001,-5.737665e-005
5.387500e-001,-5.915778e-005
5.390000e-001,-6.110084e-005
5.392500e-001,-6.320581e-005
5.395000e-001,-6.482501e-005
5.397500e-001,-6.644423e-005
5.400000e-001,-6.725383e-005
5.402500e-001,-6.806344e-005
5.405000e-001,-6.871112e-005
5.407500e-001,-6.903497e-005
5.410000e-001,-6.903497e-005
5.412500e-001,-6.822536e-005
5.415000e-001,-6.757768e-005
5.417500e-001,-6.757768e-005
5.420000e-001,-6.725383e-005
5.422500e-001,-6.595847e-005
5.425000e-001,-6.466310e-005
5.427500e-001,-6.239620e-005
5.430000e-001,-5.948163e-005
5.432500e-001,-5.640513e-005
5.435000e-001,-5.284286e-005
5.437500e-001,-4.976636e-005
5.440000e-001,-4.733755e-005
5.442500e-001,-4.604218e-005
5.445000e-001,-4.458489e-005
5.447500e-001,-4.393721e-005
5.450000e-001,-4.247992e-005
5.452500e-001,-4.102263e-005
5.455000e-001,-3.875573e-005
5.457500e-001,-3.616500e-005
5.460000e-001,-3.422195e-005
5.462500e-001,-3.146929e-005
5.465000e-001,-2.985008e-005
5.467500e-001,-2.758319e-005
5.470000e-001,-2.580206e-005
5.472500e-001,-2.321132e-005
5.475000e-001,-2.078250e-005
5.477500e-001,-1.883945e-005
5.480000e-001,-1.722024e-005
5.482500e-001,-1.608679e-005
5.485000e-001,-1.462951e-005
5.487500e-001,-1.495335e-005
5.490000e-001,-1.511527e-005
5.492500e-001,-1.527719e-005
5.495000e-001,-1.592487e-005
5.497500e-001,-1.576295e-005
5.500000e-001,-1.446759e-005
5.502500e-001,-1.317222e-005
5.505000e-001,-1.252453e-005
5.507500e-001,-1.252453e-005
5.510000e-001,-1.268645e-005
5.512500e-001,-1.349606e-005
5.515000e-001,-1.430566e-005
5.517500e-001,-1.479143e-005
5.520000e-001,-1.624872e-005
5.522500e-001,-1.770600e-005
5.525000e-001,-1.867753e-005
5.527500e-001,-1.932521e-005
5.530000e-001,-1.932521e-005
5.532500e-001,-1.916330e-005
5.535000e-001,-1.932521e-005
5.537500e-001,-1.981098e-005
5.540000e-001,-2.143019e-005
5.542500e-001,-2.288748e-005
5.545000e-001,-2.547821e-005
5.547500e-001,-2.709742e-005
5.550000e-001,-2.887855e-005
5.552500e-001,-3.033584e-005
5.555000e-001,-3.260274e-005
5.557500e-001,-3.535540e-005
5.560000e-001,-3.729845e-005
5.562500e-001,-3.940342e-005
5.565000e-001,-4.021302e-005
5.567500e-001,-4.183224e-005
5.570000e-001,-4.442297e-005
5.572500e-001,-4.701371e-005
5.575000e-001,-4.944253e-005
5.577500e-001,-5.122365e-005
5.580000e-001,-5.300478e-005
5.582500e-001,-5.510976e-005
5.585000e-001,-5.705281e-005
5.587500e-001,-5.851010e-005
5.590000e-001,-5.980547e-005
5.592500e-001,-6.110084e-005
5.595000e-001,-6.272005e-005
5.597500e-001,-6.385349e-005
5.600000e-001,-6.514887e-005
5.602500e-001,-6.612039e-005
5.605000e-001,-6.757768e-005
5.607500e-001,-6.919688e-005
5.610000e-001,-7.097802e-005
5.612500e-001,-7.178762e-005
5.615000e-001,-7.130186e-005
5.617500e-001,-7.033033e-005
5.620000e-001,-6.887304e-005
5.622500e-001,-6.790152e-005
5.625000e-001,-6.676807e-005
5.627500e-001,-6.612039e-005
5.630000e-001,-6.514887e-005
5.632500e-001,-6.336773e-005
5.635000e-001,-6.061507e-005
5.637500e-001,-5.786242e-005
5.640000e-001,-5.510976e-005
5.642500e-001,-5.284286e-005
5.645000e-001,-4.992829e-005
5.647500e-001,-4.782331e-005
5.650000e-001,-4.571834e-005
5.652500e-001,-4.231800e-005
5.655000e-001,-3.988919e-005
5.657500e-001,-3.746037e-005
5.660000e-001,-3.454579e-005
5.662500e-001,-3.146929e-005
5.665000e-001,-2.774511e-005
5.667500e-001,-2.434477e-005
5.670000e-001,-2.110635e-005
5.672500e-001,-1.851561e-005
5.675000e-001,-1.560103e-005
5.677500e-001,-1.349606e-005
5.680000e-001,-1.171493e-005
5.682500e-001,-1.074340e-005
5.685000e-001,-1.025764e-005
5.687500e-001,-1.090532e-005
5.690000e-001,-1.106724e-005
5.692500e-001,-1.090532e-005
5.695000e-001,-9.609954e-006
5.697500e-001,-8.638428e-006
5.700000e-001,-7.343060e-006
5.702500e-001,-6.209613e-006
5.705000e-001,-6.695376e-006
5.707500e-001,-6.371534e-006
5.710000e-001,-6.209613e-006
5.712500e-001,-6.695376e-006
5.715000e-001,-7.019218e-006
5.717500e-001,-7.181139e-006
5.720000e-001,-7.990744e-006
5.722500e-001,-9.124191e-006
5.725000e-001,-9.609954e-006
5.727500e-001,-1.139109e-005
5.730000e-001,-1.301030e-005
5.732500e-001,-1.430566e-005
5.735000e-001,-1.462951e-005
5.737500e-001,-1.414374e-005
5.740000e-001,-1.462951e-005
5.742500e-001,-1.543911e-005
5.745000e-001,-1.738216e-005
5.747500e-001,-2.078250e-005
5.750000e-001,-2.369708e-005
5.752500e-001,-2.693550e-005
5.755000e-001,-3.001200e-005
5.757500e-001,-3.292658e-005
5.760000e-001,-3.486963e-005
5.762500e-001,-3.681268e-005
5.765000e-001,-3.875573e-005
5.767500e-001,-4.021302e-005
5.770000e-001,-4.264184e-005
5.772500e-001,-4.490873e-005
5.775000e-001,-4.717563e-005
5.777500e-001,-4.928060e-005
5.780000e-001,-5.122365e-005
5.782500e-001,-5.316671e-005
5.785000e-001,-5.430016e-005
5.787500e-001,-5.494784e-005
5.790000e-001,-5.672897e-005
5.792500e-001,-5.915778e-005
5.795000e-001,-6.207236e-005
5.797500e-001,-6.498694e-005
5.800000e-001,-6.676807e-005
5.802500e-001,-6.919688e-005
5.805000e-001,-7.065417e-005
5.807500e-001,-7.211146e-005
5.810000e-001,-7.340683e-005
5.812500e-001,-7.389260e-005
5.815000e-001,-7.340683e-005
5.817500e-001,-7.292107e-005
5.820000e-001,-7.130186e-005
5.822500e-001,-6.887304e-005
5.825000e-001,-6.709192e-005
5.827500e-001,-6.498694e-005
5.830000e-001,-6.304389e-005
5.832500e-001,-6.061507e-005
5.835000e-001,-5.867202e-005
5.837500e-001,-5.672897e-005
5.840000e-001,-5.494784e-005
5.842500e-001,-5.365247e-005
5.845000e-001,-5.170942e-005
5.847500e-001,-4.992829e-005
5.850000e-001,-4.863292e-005
5.852500e-001,-4.636602e-005
5.855000e-001,-4.264184e-005
5.857500e-001,-3.891766e-005
5.860000e-001,-3.486963e-005
5.862500e-001,-3.179313e-005
5.865000e-001,-2.936432e-005
5.867500e-001,-2.742127e-005
5.870000e-001,-2.612590e-005
5.872500e-001,-2.483053e-005
5.875000e-001,-2.256364e-005
5.877500e-001,-1.997290e-005
5.880000e-001,-1.738216e-005
5.882500e-001,-1.543911e-005
5.885000e-001,-1.398182e-005
5.887500e-001,-1.301030e-005
5.890000e-001,-1.284837e-005
5.892500e-001,-1.301030e-005
5.895000e-001,-1.268645e-005
5.897500e-001,-1.317222e-005
5.900000e-001,-1.236261e-005
5.902500e-001,-1.139109e-005
5.905000e-001,-9.448033e-006
5.907500e-001,-7.990744e-006
5.910000e-001,-7.666902e-006
5.912500e-001,-7.504981e-006
5.915000e-001,-6.857297e-006
5.917500e-001,-7.181139e-006
5.920000e-001,-8.638428e-006
5.922500e-001,-1.041956e-005
5.925000e-001,-1.268645e-005
5.927500e-001,-1.543911e-005
5.930000e-001,-1.689640e-005
5.932500e-001,-1.883945e-005
5.935000e-001,-1.964906e-005
5.937500e-001,-2.094442e-005
5.940000e-001,-2.191595e-005
5.942500e-001,-2.256364e-005
5.945000e-001,-2.288748e-005
5.947500e-001,-2.321132e-005
5.950000e-001,-2.499245e-005
5.952500e-001,-2.774511e-005
5.955000e-001,-3.017392e-005
5.957500e-001,-3.276466e-005
5.960000e-001,-3.406002e-005
5.962500e-001,-3.503155e-005
5.965000e-001,-3.535540e-005
5.967500e-001,-3.551731e-005
5.970000e-001,-3.729845e-005
5.972500e-001,-3.940342e-005
5.975000e-001,-4.199416e-005
5.977500e-001,-4.458489e-005
5.980000e-001,-4.620410e-005
5.982500e-001,-4.782331e-005
5.985000e-001,-4.863292e-005
5.987500e-001,-5.009021e-005
5.990000e-001,-5.170942e-005
5.992500e-001,-5.268094e-005
5.995000e-001,-5.478592e-005
5.997500e-001,-5.575744e-005
6.000000e-001,-5.737665e-005
6.002500e-001,-5.931970e-005
6.005000e-001,-6.174852e-005
6.007500e-001,-6.336773e-005
6.010000e-001,-6.433926e-005
6.012500e-001,-6.547270e-005
6.015000e-001,-6.644423e-005
6.017500e-001,-6.709192e-005
6.020000e-001,-6.773959e-005
6.022500e-001,-6.773959e-005
6.025000e-001,-6.676807e-005
6.027500e-001,-6.514887e-005
6.030000e-001,-6.255812e-005
6.032500e-001,-6.029123e-005
6.035000e-001,-5.786242e-005
6.037500e-001,-5.527168e-005
6.040000e-001,-5.203326e-005
6.042500e-001,-4.960444e-005
6.045000e-001,-4.766139e-005
6.047500e-001,-4.652794e-005
6.050000e-001,-4.442297e-005
6.052500e-001,-4.247992e-005
6.055000e-001,-4.069879e-005
6.057500e-001,-3.843190e-005
6.060000e-001,-3.648884e-005
6.062500e-001,-3.503155e-005
6.065000e-001,-3.276466e-005
6.067500e-001,-3.065968e-005
6.070000e-001,-2.855471e-005
6.072500e-001,-2.677358e-005
6.075000e-001,-2.466861e-005
6.077500e-001,-2.191595e-005
6.080000e-001,-2.045866e-005
6.082500e-001,-2.029674e-005
6.085000e-001,-2.013482e-005
6.087500e-001,-1.916330e-005
6.090000e-001,-1.705832e-005
6.092500e-001,-1.462951e-005
6.095000e-001,-1.252453e-005
6.097500e-001,-1.203877e-005
6.100000e-001,-1.252453e-005
6.102500e-001,-1.301030e-005
6.105000e-001,-1.268645e-005
6.107500e-001,-1.187685e-005
6.110000e-001,-1.220069e-005
6.112500e-001,-1.301030e-005
6.115000e-001,-1.430566e-005
6.117500e-001,-1.624872e-005
6.120000e-001,-1.786793e-005
6.122500e-001,-1.867753e-005
6.125000e-001,-1.997290e-005
6.127500e-001,-2.013482e-005
6.130000e-001,-2.094442e-005
6.132500e-001,-2.240171e-005
6.135000e-001,-2.418285e-005
6.137500e-001,-2.564013e-005
6.140000e-001,-2.758319e-005
6.142500e-001,-2.855471e-005
6.145000e-001,-2.985008e-005
6.147500e-001,-3.098353e-005
6.150000e-001,-3.227890e-005
6.152500e-001,-3.292658e-005
6.155000e-001,-3.486963e-005
6.157500e-001,-3.648884e-005
6.160000e-001,-3.746037e-005
6.162500e-001,-3.810805e-005
6.165000e-001,-3.891766e-005
6.167500e-001,-4.021302e-005
6.170000e-001,-4.231800e-005
6.172500e-001,-4.458489e-005
6.175000e-001,-4.847100e-005
6.177500e-001,-5.138558e-005
6.180000e-001,-5.349055e-005
6.182500e-001,-5.543360e-005
6.185000e-001,-5.705281e-005
6.187500e-001,-5.834818e-005
6.190000e-001,-5.931970e-005
6.192500e-001,-6.061507e-005
6.195000e-001,-6.174852e-005
6.197500e-001,-6.304389e-005
6.200000e-001,-6.482501e-005
6.202500e-001,-6.514887e-005
6.205000e-001,-6.563462e-005
6.207500e-001,-6.531078e-005
6.210000e-001,-6.547270e-005
6.212500e-001,-6.547270e-005
6.215000e-001,-6.547270e-005
6.217500e-001,-6.531078e-005
6.220000e-001,-6.466310e-005
6.222500e-001,-6.450118e-005
6.225000e-001,-6.450118e-005
6.227500e-001,-6.320581e-005
6.230000e-001,-6.272005e-005
6.232500e-001,-6.126276e-005
6.235000e-001,-5.980547e-005
6.237500e-001,-5.753857e-005
6.240000e-001,-5.510976e-005
6.242500e-001,-5.203326e-005
6.245000e-001,-4.944253e-005
6.247500e-001,-4.636602e-005
6.250000e-001,-4.312760e-005
6.252500e-001,-4.005111e-005
6.255000e-001,-3.665076e-005
6.257500e-001,-3.308850e-005
6.260000e-001,-2.936432e-005
6.262500e-001,-2.547821e-005
6.265000e-001,-2.240171e-005
6.267500e-001,-2.029674e-005
6.270000e-001,-1.948714e-005
6.272500e-001,-1.916330e-005
6.275000e-001,-1.738216e-005
6.277500e-001,-1.560103e-005
6.280000e-001,-1.284837e-005
6.282500e-001,-9.933796e-006
6.285000e-001,-7.666902e-006
6.287500e-001,-6.857297e-006
6.290000e-001,-7.019218e-006
6.292500e-001,-6.857297e-006
6.295000e-001,-7.019218e-006
6.297500e-001,-6.857297e-006
6.300000e-001,-5.400008e-006
6.302500e-001,-3.456956e-006
6.305000e-001,-1.999666e-006
6.307500e-001,-1.837745e-006
6.310000e-001,-2.323509e-006
6.312500e-001,-4.428482e-006
6.315000e-001,-6.857297e-006
6.317500e-001,-8.800349e-006
6.320000e-001,-1.090532e-005
6.322500e-001,-1.171493e-005
6.325000e-001,-1.252453e-005
6.327500e-001,-1.301030e-005
6.330000e-001,-1.381990e-005
6.332500e-001,-1.592487e-005
6.335000e-001,-1.770600e-005
6.337500e-001,-1.964906e-005
6.340000e-001,-2.191595e-005
6.342500e-001,-2.385900e-005
6.345000e-001,-2.612590e-005
6.347500e-001,-2.855471e-005
6.350000e-001,-3.082161e-005
6.352500e-001,-3.276466e-005
6.355000e-001,-3.422195e-005
6.357500e-001,-3.648884e-005
6.360000e-001,-3.891766e-005
6.362500e-001,-4.118455e-005
6.365000e-001,-4.280376e-005
6.367500e-001,-4.523258e-005
6.370000e-001,-4.782331e-005
6.372500e-001,-4.992829e-005
6.375000e-001,-5.268094e-005
6.377500e-001,-5.446207e-005
6.380000e-001,-5.624321e-005
6.382500e-001,-5.721473e-005
6.385000e-001,-5.883394e-005
6.387500e-001,-6.061507e-005
6.390000e-001,-6.288196e-005
6.392500e-001,-6.498694e-005
6.395000e-001,-6.709192e-005
6.397500e-001,-6.887304e-005
6.400000e-001,-6.903497e-005
6.402500e-001,-6.790152e-005
6.405000e-001,-6.692999e-005
6.407500e-001,-6.709192e-005
6.410000e-001,-6.725383e-005
6.412500e-001,-6.854921e-005
6.415000e-001,-6.903497e-005
6.417500e-001,-6.806344e-005
6.420000e-001,-6.628231e-005
6.422500e-001,-6.369157e-005
6.425000e-001,-6.093892e-005
6.427500e-001,-5.883394e-005
6.430000e-001,-5.672897e-005
6.432500e-001,-5.510976e-005
6.435000e-001,-5.397631e-005
6.437500e-001,-5.316671e-005
6.440000e-001,-5.203326e-005
6.442500e-001,-4.960444e-005
6.445000e-001,-4.668987e-005
6.447500e-001,-4.345144e-005
6.450000e-001,-4.053687e-005
6.452500e-001,-3.843190e-005
6.455000e-001,-3.697461e-005
6.457500e-001,-3.519348e-005
6.460000e-001,-3.292658e-005
6.462500e-001,-3.017392e-005
6.465000e-001,-2.709742e-005
6.467500e-001,-2.418285e-005
6.470000e-001,-2.126827e-005
6.472500e-001,-1.997290e-005
6.475000e-001,-1.916330e-005
6.477500e-001,-1.786793e-005
6.480000e-001,-1.754408e-005
6.482500e-001,-1.592487e-005
6.485000e-001,-1.317222e-005
6.487500e-001,-1.155301e-005
6.490000e-001,-1.009572e-005
6.492500e-001,-9.286112e-006
6.495000e-001,-9.448033e-006
6.497500e-001,-8.962270e-006
6.500000e-001,-9.286112e-006
6.502500e-001,-8.314586e-006
6.505000e-001,-8.314586e-006
6.507500e-001,-9.448033e-006
6.510000e-001,-1.041956e-005
6.512500e-001,-1.171493e-005
6.515000e-001,-1.268645e-005
6.517500e-001,-1.317222e-005
6.520000e-001,-1.365798e-005
6.522500e-001,-1.527719e-005
6.525000e-001,-1.641064e-005
6.527500e-001,-1.738216e-005
6.530000e-001,-1.819177e-005
6.532500e-001,-1.835369e-005
6.535000e-001,-1.867753e-005
6.537500e-001,-1.932521e-005
6.540000e-001,-2.045866e-005
6.542500e-001,-2.126827e-005
6.545000e-001,-2.175403e-005
6.547500e-001,-2.175403e-005
6.550000e-001,-2.223979e-005
6.552500e-001,-2.369708e-005
6.555000e-001,-2.661166e-005
6.557500e-001,-2.968816e-005
6.560000e-001,-3.211697e-005
6.562500e-001,-3.503155e-005
6.565000e-001,-3.729845e-005
6.567500e-001,-4.005111e-005
6.570000e-001,-4.328952e-005
6.572500e-001,-4.668987e-005
6.575000e-001,-5.073789e-005
6.577500e-001,-5.575744e-005
6.580000e-001,-6.012931e-005
6.582500e-001,-6.288196e-005
6.585000e-001,-6.433926e-005
6.587500e-001,-6.595847e-005
6.590000e-001,-6.741576e-005
6.592500e-001,-6.919688e-005
6.595000e-001,-7.097802e-005
6.597500e-001,-7.130186e-005
6.600000e-001,-7.162570e-005
6.602500e-001,-7.243531e-005
6.605000e-001,-7.308299e-005
6.607500e-001,-7.389260e-005
6.610000e-001,-7.518796e-005
6.612500e-001,-7.551181e-005
6.615000e-001,-7.534988e-005
6.617500e-001,-7.421643e-005
6.620000e-001,-7.227338e-005
6.622500e-001,-7.000649e-005
6.625000e-001,-6.709192e-005
6.627500e-001,-6.433926e-005
6.630000e-001,-6.191044e-005
6.632500e-001,-5.931970e-005
6.635000e-001,-5.753857e-005
6.637500e-001,-5.494784e-005
6.640000e-001,-5.170942e-005
6.642500e-001,-4.749947e-005
6.645000e-001,-4.328952e-005
6.647500e-001,-3.940342e-005
6.650000e-001,-3.584116e-005
6.652500e-001,-3.292658e-005
6.655000e-001,-3.098353e-005
6.657500e-001,-2.887855e-005
6.660000e-001,-2.628782e-005
6.662500e-001,-2.288748e-005
6.665000e-001,-1.997290e-005
6.667500e-001,-1.738216e-005
6.670000e-001,-1.543911e-005
6.672500e-001,-1.414374e-005
6.675000e-001,-1.317222e-005
6.677500e-001,-1.317222e-005
6.680000e-001,-1.252453e-005
6.682500e-001,-1.203877e-005
6.685000e-001,-1.139109e-005
6.687500e-001,-9.933796e-006
6.690000e-001,-9.124191e-006
6.692500e-001,-8.638428e-006
6.695000e-001,-8.476507e-006
6.697500e-001,-7.990744e-006
6.700000e-001,-6.695376e-006
6.702500e-001,-6.047692e-006
6.705000e-001,-4.914245e-006
6.707500e-001,-5.076166e-006
6.710000e-001,-6.695376e-006
6.712500e-001,-8.638428e-006
6.715000e-001,-1.058148e-005
6.717500e-001,-1.284837e-005
6.720000e-001,-1.479143e-005
6.722500e-001,-1.657256e-005
6.725000e-001,-1.770600e-005
6.727500e-001,-1.883945e-005
6.730000e-001,-1.900137e-005
6.732500e-001,-1.932521e-005
6.735000e-001,-2.029674e-005
6.737500e-001,-2.223979e-005
6.740000e-001,-2.337324e-005
6.742500e-001,-2.385900e-005
6.745000e-001,-2.418285e-005
6.747500e-001,-2.499245e-005
6.750000e-001,-2.596398e-005
6.752500e-001,-2.709742e-005
6.755000e-001,-2.774511e-005
6.757500e-001,-3.049776e-005
6.760000e-001,-3.341234e-005
6.762500e-001,-3.746037e-005
6.765000e-001,-4.086071e-005
6.767500e-001,-4.458489e-005
6.770000e-001,-4.701371e-005
6.772500e-001,-4.895676e-005
6.775000e-001,-5.138558e-005
6.777500e-001,-5.381439e-005
6.780000e-001,-5.624321e-005
6.782500e-001,-5.867202e-005
6.785000e-001,-6.077699e-005
6.787500e-001,-6.239620e-005
6.790000e-001,-6.401541e-005
6.792500e-001,-6.498694e-005
6.795000e-001,-6.628231e-005
6.797500e-001,-6.725383e-005
6.800000e-001,-6.838728e-005
6.802500e-001,-6.919688e-005
6.805000e-001,-6.984457e-005
6.807500e-001,-7.049226e-005
6.810000e-001,-7.113993e-005
6.812500e-001,-7.081610e-005
6.815000e-001,-6.919688e-005
6.817500e-001,-6.838728e-005
6.820000e-001,-6.773959e-005
6.822500e-001,-6.660615e-005
6.825000e-001,-6.563462e-005
6.827500e-001,-6.255812e-005
6.830000e-001,-5.964355e-005
6.832500e-001,-5.672897e-005
6.835000e-001,-5.446207e-005
6.837500e-001,-5.284286e-005
6.840000e-001,-5.073789e-005
6.842500e-001,-4.911868e-005
6.845000e-001,-4.685179e-005
6.847500e-001,-4.490873e-005
6.850000e-001,-4.247992e-005
6.852500e-001,-3.956534e-005
6.855000e-001,-3.697461e-005
6.857500e-001,-3.389810e-005
6.860000e-001,-3.049776e-005
6.862500e-001,-2.596398e-005
6.865000e-001,-2.175403e-005
6.867500e-001,-1.835369e-005
6.870000e-001,-1.543911e-005
6.872500e-001,-1.446759e-005
6.875000e-001,-1.446759e-005
6.877500e-001,-1.381990e-005
6.880000e-001,-1.284837e-005
6.882500e-001,-1.155301e-005
6.885000e-001,-1.106724e-005
6.887500e-001,-1.090532e-005
6.890000e-001,-1.090532e-005
6.892500e-001,-1.106724e-005
6.895000e-001,-1.041956e-005
6.897500e-001,-9.933796e-006
6.900000e-001,-9.124191e-006
6.902500e-001,-8.314586e-006
6.905000e-001,-7.181139e-006
6.907500e-001,-6.371534e-006
6.910000e-001,-6.047692e-006
6.912500e-001,-6.371534e-006
6.915000e-001,-7.019218e-006
6.917500e-001,-8.476507e-006
6.920000e-001,-9.609954e-006
6.922500e-001,-1.122916e-005
6.925000e-001,-1.220069e-005
6.927500e-001,-1.317222e-005
6.930000e-001,-1.365798e-005
6.932500e-001,-1.479143e-005
6.935000e-001,-1.657256e-005
6.937500e-001,-1.900137e-005
6.940000e-001,-2.045866e-005
6.942500e-001,-2.159211e-005
6.945000e-001,-2.256364e-005
6.947500e-001,-2.499245e-005
6.950000e-001,-2.709742e-005
6.952500e-001,-3.049776e-005
6.955000e-001,-3.292658e-005
6.957500e-001,-3.535540e-005
6.960000e-001,-3.826997e-005
6.962500e-001,-4.086071e-005
6.965000e-001,-4.474682e-005
6.967500e-001,-4.782331e-005
6.970000e-001,-5.122365e-005
6.972500e-001,-5.349055e-005
6.975000e-001,-5.543360e-005
6.977500e-001,-5.737665e-005
6.980000e-001,-5.948163e-005
6.982500e-001,-6.174852e-005
6.985000e-001,-6.336773e-005
6.987500e-001,-6.482501e-005
6.990000e-001,-6.595847e-005
6.992500e-001,-6.790152e-005
6.995000e-001,-6.952073e-005
6.997500e-001,-7.130186e-005
7.000000e-001,-7.243531e-005
7.002500e-001,-7.292107e-005
7.005000e-001,-7.308299e-005
7.007500e-001,-7.275915e-005
7.010000e-001,-7.292107e-005
7.012500e-001,-7.211146e-005
7.015000e-001,-7.259723e-005
7.017500e-001,-7.211146e-005
7.020000e-001,-7.130186e-005
7.022500e-001,-7.016841e-005
7.025000e-001,-6.854921e-005
7.027500e-001,-6.563462e-005
7.030000e-001,-6.352965e-005
7.032500e-001,-6.110084e-005
7.035000e-001,-5.802434e-005
7.037500e-001,-5.624321e-005
7.040000e-001,-5.316671e-005
7.042500e-001,-5.041405e-005
7.045000e-001,-4.749947e-005
7.047500e-001,-4.507065e-005
7.050000e-001,-4.215608e-005
7.052500e-001,-3.940342e-005
7.055000e-001,-3.551731e-005
7.057500e-001,-3.244082e-005
7.060000e-001,-2.985008e-005
7.062500e-001,-2.774511e-005
7.065000e-001,-2.644974e-005
7.067500e-001,-2.337324e-005
7.070000e-001,-2.045866e-005
7.072500e-001,-1.738216e-005
7.075000e-001,-1.462951e-005
7.077500e-001,-1.284837e-005
7.080000e-001,-1.171493e-005
7.082500e-001,-1.106724e-005
7.085000e-001,-1.122916e-005
7.087500e-001,-1.090532e-005
7.090000e-001,-1.058148e-005
7.092500e-001,-1.025764e-005
7.095000e-001,-9.124191e-006
7.097500e-001,-7.828823e-006
7.100000e-001,-7.181139e-006
7.102500e-001,-7.019218e-006
7.105000e-001,-7.343060e-006
7.107500e-001,-9.448033e-006
7.110000e-001,-1.155301e-005
7.112500e-001,-1.317222e-005
7.115000e-001,-1.398182e-005
7.117500e-001,-1.430566e-005
7.120000e-001,-1.511527e-005
7.122500e-001,-1.560103e-005
7.125000e-001,-1.657256e-005
7.127500e-001,-1.738216e-005
7.130000e-001,-1.819177e-005
7.132500e-001,-1.900137e-005
7.135000e-001,-2.013482e-005
7.137500e-001,-2.094442e-005
7.140000e-001,-2.175403e-005
7.142500e-001,-2.288748e-005
7.145000e-001,-2.580206e-005
7.147500e-001,-2.855471e-005
7.150000e-001,-3.098353e-005
7.152500e-001,-3.292658e-005
7.155000e-001,-3.373619e-005
7.157500e-001,-3.438387e-005
7.160000e-001,-3.551731e-005
7.162500e-001,-3.746037e-005
7.165000e-001,-3.940342e-005
7.167500e-001,-4.215608e-005
7.170000e-001,-4.588026e-005
7.172500e-001,-4.863292e-005
7.175000e-001,-5.203326e-005
7.177500e-001,-5.365247e-005
7.180000e-001,-5.510976e-005
7.182500e-001,-5.656705e-005
7.185000e-001,-5.834818e-005
7.187500e-001,-6.029123e-005
7.190000e-001,-6.207236e-005
7.192500e-001,-6.288196e-005
7.195000e-001,-6.336773e-005
7.197500e-001,-6.401541e-005
7.200000e-001,-6.401541e-005
7.202500e-001,-6.450118e-005
7.205000e-001,-6.660615e-005
7.207500e-001,-6.790152e-005
7.210000e-001,-6.887304e-005
7.212500e-001,-6.903497e-005
7.215000e-001,-6.854921e-005
7.217500e-001,-6.757768e-005
7.220000e-001,-6.676807e-005
7.222500e-001,-6.595847e-005
7.225000e-001,-6.401541e-005
7.227500e-001,-6.142468e-005
7.230000e-001,-5.851010e-005
7.232500e-001,-5.575744e-005
7.235000e-001,-5.349055e-005
7.237500e-001,-5.057597e-005
7.240000e-001,-4.798524e-005
7.242500e-001,-4.620410e-005
7.245000e-001,-4.377529e-005
7.247500e-001,-4.102263e-005
7.250000e-001,-3.826997e-005
7.252500e-001,-3.551731e-005
7.255000e-001,-3.341234e-005
7.257500e-001,-3.082161e-005
7.260000e-001,-2.790703e-005
7.262500e-001,-2.385900e-005
7.265000e-001,-1.997290e-005
7.267500e-001,-1.673448e-005
7.270000e-001,-1.479143e-005
7.272500e-001,-1.365798e-005
7.275000e-001,-1.381990e-005
7.277500e-001,-1.349606e-005
7.280000e-001,-1.268645e-005
7.282500e-001,-1.155301e-005
7.285000e-001,-9.609954e-006
7.287500e-001,-7.504981e-006
7.290000e-001,-5.723850e-006
7.292500e-001,-4.428482e-006
7.295000e-001,-3.456956e-006
7.297500e-001,-2.647351e-006
7.300000e-001,-3.133114e-006
7.302500e-001,-4.590403e-006
7.305000e-001,-6.857297e-006
7.307500e-001,-9.771876e-006
7.310000e-001,-1.171493e-005
7.312500e-001,-1.317222e-005
7.315000e-001,-1.365798e-005
7.317500e-001,-1.398182e-005
7.320000e-001,-1.462951e-005
7.322500e-001,-1.592487e-005
7.325000e-001,-1.624872e-005
7.327500e-001,-1.689640e-005
7.330000e-001,-1.770600e-005
7.332500e-001,-1.900137e-005
7.335000e-001,-1.997290e-005
7.337500e-001,-2.143019e-005
7.340000e-001,-2.321132e-005
7.342500e-001,-2.483053e-005
7.345000e-001,-2.661166e-005
7.347500e-001,-2.855471e-005
7.350000e-001,-3.017392e-005
7.352500e-001,-3.146929e-005
7.355000e-001,-3.244082e-005
7.357500e-001,-3.325042e-005
7.360000e-001,-3.389810e-005
7.362500e-001,-3.535540e-005
7.365000e-001,-3.729845e-005
7.367500e-001,-3.907958e-005
7.370000e-001,-4.183224e-005
7.372500e-001,-4.474682e-005
7.375000e-001,-4.782331e-005
7.377500e-001,-5.057597e-005
7.380000e-001,-5.268094e-005
7.382500e-001,-5.510976e-005
7.385000e-001,-5.786242e-005
7.387500e-001,-6.012931e-005
7.390000e-001,-6.272005e-005
7.392500e-001,-6.482501e-005
7.395000e-001,-6.725383e-005
7.397500e-001,-6.984457e-005
7.400000e-001,-7.292107e-005
7.402500e-001,-7.437836e-005
7.405000e-001,-7.518796e-005
7.407500e-001,-7.534988e-005
7.410000e-001,-7.437836e-005
7.412500e-001,-7.292107e-005
7.415000e-001,-7.146378e-005
7.417500e-001,-7.049226e-005
7.420000e-001,-6.903497e-005
7.422500e-001,-6.709192e-005
7.425000e-001,-6.498694e-005
7.427500e-001,-6.255812e-005
7.430000e-001,-6.110084e-005
7.432500e-001,-5.948163e-005
7.435000e-001,-5.753857e-005
7.437500e-001,-5.494784e-005
7.440000e-001,-5.284286e-005
7.442500e-001,-5.041405e-005
7.445000e-001,-4.685179e-005
7.447500e-001,-4.393721e-005
7.450000e-001,-4.053687e-005
7.452500e-001,-3.778421e-005
7.455000e-001,-3.486963e-005
7.457500e-001,-3.292658e-005
7.460000e-001,-3.065968e-005
7.462500e-001,-2.823087e-005
7.465000e-001,-2.596398e-005
7.467500e-001,-2.321132e-005
7.470000e-001,-2.110635e-005
7.472500e-001,-1.964906e-005
7.475000e-001,-1.770600e-005
7.477500e-001,-1.673448e-005
7.480000e-001,-1.641064e-005
7.482500e-001,-1.624872e-005
7.485000e-001,-1.641064e-005
7.487500e-001,-1.657256e-005
7.490000e-001,-1.673448e-005
7.492500e-001,-1.608679e-005
7.495000e-001,-1.446759e-005
7.497500e-001,-1.301030e-005
7.500000e-001,-1.139109e-005
7.502500e-001,-1.122916e-005
7.505000e-001,-1.236261e-005
7.507500e-001,-1.446759e-005
7.510000e-001,-1.576295e-005
7.512500e-001,-1.786793e-005
7.515000e-001,-1.981098e-005
7.517500e-001,-2.191595e-005
7.520000e-001,-2.385900e-005
7.522500e-001,-2.580206e-005
7.525000e-001,-2.693550e-005
7.527500e-001,-2.758319e-005
7.530000e-001,-2.742127e-005
7.532500e-001,-2.612590e-005
7.535000e-001,-2.499245e-005
7.537500e-001,-2.321132e-005
7.540000e-001,-2.207787e-005
7.542500e-001,-2.191595e-005
7.545000e-001,-2.240171e-005
7.547500e-001,-2.304940e-005
7.550000e-001,-2.402092e-005
7.552500e-001,-2.466861e-005
7.555000e-001,-2.564013e-005
7.557500e-001,-2.693550e-005
7.560000e-001,-2.742127e-005
7.562500e-001,-2.855471e-005
7.565000e-001,-2.985008e-005
7.567500e-001,-3.260274e-005
7.570000e-001,-3.519348e-005
7.572500e-001,-3.843190e-005
7.575000e-001,-4.296568e-005
7.577500e-001,-4.701371e-005
7.580000e-001,-5.122365e-005
7.582500e-001,-5.462399e-005
7.585000e-001,-5.818626e-005
7.587500e-001,-6.110084e-005
7.590000e-001,-6.352965e-005
7.592500e-001,-6.563462e-005
7.595000e-001,-6.725383e-005
7.597500e-001,-6.871112e-005
7.600000e-001,-6.838728e-005
7.602500e-001,-6.822536e-005
7.605000e-001,-6.854921e-005
7.607500e-001,-6.952073e-005
7.610000e-001,-7.113993e-005
7.612500e-001,-7.324491e-005
7.615000e-001,-7.437836e-005
7.617500e-001,-7.421643e-005
7.620000e-001,-7.275915e-005
7.622500e-001,-7.000649e-005
7.625000e-001,-6.644423e-005
7.627500e-001,-6.304389e-005
7.630000e-001,-5.964355e-005
7.632500e-001,-5.705281e-005
7.635000e-001,-5.430016e-005
7.637500e-001,-5.235710e-005
7.640000e-001,-4.992829e-005
7.642500e-001,-4.814715e-005
7.645000e-001,-4.539450e-005
7.647500e-001,-4.345144e-005
7.650000e-001,-4.021302e-005
7.652500e-001,-3.697461e-005
7.655000e-001,-3.406002e-005
7.657500e-001,-3.017392e-005
7.660000e-001,-2.661166e-005
7.662500e-001,-2.321132e-005
7.665000e-001,-2.062058e-005
7.667500e-001,-1.867753e-005
7.670000e-001,-1.657256e-005
7.672500e-001,-1.479143e-005
7.675000e-001,-1.236261e-005
7.677500e-001,-1.041956e-005
7.680000e-001,-8.152665e-006
7.682500e-001,-6.209613e-006
7.685000e-001,-5.885771e-006
7.687500e-001,-4.914245e-006
7.690000e-001,-3.780798e-006
7.692500e-001,-2.647351e-006
7.695000e-001,-1.190062e-006
7.697500e-001,1.053066e-007
7.700000e-001,1.238754e-006
7.702500e-001,2.210280e-006
7.705000e-001,2.210280e-006
7.707500e-001,1.562596e-006
7.710000e-001,9.149117e-007
7.712500e-001,-3.804564e-007
7.715000e-001,-1.513904e-006
7.717500e-001,-2.971193e-006
7.720000e-001,-4.914245e-006
7.722500e-001,-6.533455e-006
7.725000e-001,-7.504981e-006
7.727500e-001,-9.124191e-006
7.730000e-001,-1.058148e-005
7.732500e-001,-1.284837e-005
7.735000e-001,-1.560103e-005
7.737500e-001,-1.835369e-005
7.740000e-001,-2.110635e-005
7.742500e-001,-2.385900e-005
7.745000e-001,-2.709742e-005
7.747500e-001,-3.001200e-005
7.750000e-001,-3.325042e-005
7.752500e-001,-3.616500e-005
7.755000e-001,-3.891766e-005
7.757500e-001,-4.102263e-005
7.760000e-001,-4.328952e-005
7.762500e-001,-4.604218e-005
7.765000e-001,-4.847100e-005
7.767500e-001,-5.025213e-005
7.770000e-001,-5.187134e-005
7.772500e-001,-5.397631e-005
7.775000e-001,-5.591936e-005
7.777500e-001,-5.818626e-005
7.780000e-001,-6.093892e-005
7.782500e-001,-6.304389e-005
7.785000e-001,-6.628231e-005
7.787500e-001,-6.952073e-005
7.790000e-001,-7.292107e-005
7.792500e-001,-7.632141e-005
7.795000e-001,-7.810254e-005
7.797500e-001,-7.858830e-005
7.800000e-001,-7.858830e-005
7.802500e-001,-7.777870e-005
7.805000e-001,-7.745486e-005
7.807500e-001,-7.729293e-005
7.810000e-001,-7.680718e-005
7.812500e-001,-7.615949e-005
7.815000e-001,-7.567373e-005
7.817500e-001,-7.373068e-005
7.820000e-001,-7.259723e-005
7.822500e-001,-7.065417e-005
7.825000e-001,-6.838728e-005
7.827500e-001,-6.547270e-005
7.830000e-001,-6.191044e-005
7.832500e-001,-5.802434e-005
7.835000e-001,-5.365247e-005
7.837500e-001,-5.057597e-005
7.840000e-001,-4.830907e-005
7.842500e-001,-4.604218e-005
7.845000e-001,-4.361337e-005
7.847500e-001,-4.118455e-005
7.850000e-001,-3.924150e-005
7.852500e-001,-3.697461e-005
7.855000e-001,-3.422195e-005
7.857500e-001,-3.130737e-005
7.860000e-001,-2.904048e-005
7.862500e-001,-2.531629e-005
7.865000e-001,-2.094442e-005
7.867500e-001,-1.738216e-005
7.870000e-001,-1.446759e-005
7.872500e-001,-1.381990e-005
7.875000e-001,-1.333414e-005
7.877500e-001,-1.398182e-005
7.880000e-001,-1.495335e-005
7.882500e-001,-1.527719e-005
7.885000e-001,-1.446759e-005
7.887500e-001,-1.220069e-005
7.890000e-001,-9.124191e-006
7.892500e-001,-7.343060e-006
7.895000e-001,-5.885771e-006
7.897500e-001,-5.885771e-006
7.900000e-001,-6.371534e-006
7.902500e-001,-7.019218e-006
7.905000e-001,-7.990744e-006
7.907500e-001,-8.314586e-006
7.910000e-001,-8.476507e-006
7.912500e-001,-8.800349e-006
7.915000e-001,-9.124191e-006
7.917500e-001,-9.771876e-006
7.920000e-001,-1.090532e-005
7.922500e-001,-1.220069e-005
7.925000e-001,-1.381990e-005
7.927500e-001,-1.543911e-005
7.930000e-001,-1.738216e-005
7.932500e-001,-1.964906e-005
7.935000e-001,-2.207787e-005
7.937500e-001,-2.288748e-005
7.940000e-001,-2.385900e-005
7.942500e-001,-2.499245e-005
7.945000e-001,-2.709742e-005
7.947500e-001,-2.936432e-005
7.950000e-001,-3.179313e-005
7.952500e-001,-3.325042e-005
7.955000e-001,-3.470771e-005
7.957500e-001,-3.616500e-005
7.960000e-001,-3.810805e-005
7.962500e-001,-4.037495e-005
7.965000e-001,-4.280376e-005
7.967500e-001,-4.539450e-005
7.970000e-001,-4.749947e-005
7.972500e-001,-4.960444e-005
7.975000e-001,-5.154750e-005
7.977500e-001,-5.365247e-005
7.980000e-001,-5.575744e-005
7.982500e-001,-5.721473e-005
7.985000e-001,-5.948163e-005
7.987500e-001,-6.126276e-005
7.990000e-001,-6.239620e-005
7.992500e-001,-6.320581e-005
7.995000e-001,-6.450118e-005
7.997500e-001,-6.644423e-005
8.000000e-001,-6.871112e-005
8.002500e-001,-7.097802e-005
8.005000e-001,-7.259723e-005
8.007500e-001,-7.292107e-005
8.010000e-001,-7.340683e-005
8.012500e-001,-7.324491e-005
8.015000e-001,-7.308299e-005
8.017500e-001,-7.194954e-005
8.020000e-001,-6.984457e-005
8.022500e-001,-6.676807e-005
8.025000e-001,-6.272005e-005
8.027500e-001,-5.931970e-005
8.030000e-001,-5.543360e-005
8.032500e-001,-5.300478e-005
8.035000e-001,-5.073789e-005
8.037500e-001,-4.863292e-005
8.040000e-001,-4.604218e-005
8.042500e-001,-4.426105e-005
8.045000e-001,-4.296568e-005
8.047500e-001,-4.118455e-005
8.050000e-001,-3.875573e-005
8.052500e-001,-3.567924e-005
8.055000e-001,-3.227890e-005
8.057500e-001,-2.839279e-005
8.060000e-001,-2.547821e-005
8.062500e-001,-2.207787e-005
8.065000e-001,-1.981098e-005
8.067500e-001,-1.738216e-005
8.070000e-001,-1.576295e-005
8.072500e-001,-1.462951e-005
8.075000e-001,-1.462951e-005
8.077500e-001,-1.414374e-005
8.080000e-001,-1.365798e-005
8.082500e-001,-1.462951e-005
8.085000e-001,-1.608679e-005
8.087500e-001,-1.705832e-005
8.090000e-001,-1.657256e-005
8.092500e-001,-1.430566e-005
8.095000e-001,-1.171493e-005
8.097500e-001,-1.025764e-005
8.100000e-001,-8.152665e-006
8.102500e-001,-6.857297e-006
8.105000e-001,-7.504981e-006
8.107500e-001,-7.990744e-006
8.110000e-001,-9.933796e-006
8.112500e-001,-1.203877e-005
8.115000e-001,-1.414374e-005
8.117500e-001,-1.592487e-005
8.120000e-001,-1.754408e-005
8.122500e-001,-1.819177e-005
8.125000e-001,-1.916330e-005
8.127500e-001,-2.094442e-005
8.130000e-001,-2.256364e-005
8.132500e-001,-2.418285e-005
8.135000e-001,-2.564013e-005
8.137500e-001,-2.693550e-005
8.140000e-001,-2.725934e-005
8.142500e-001,-2.806895e-005
8.145000e-001,-2.871663e-005
8.147500e-001,-3.065968e-005
8.150000e-001,-3.292658e-005
8.152500e-001,-3.535540e-005
8.155000e-001,-3.746037e-005
8.157500e-001,-3.924150e-005
8.160000e-001,-4.086071e-005
8.162500e-001,-4.345144e-005
8.165000e-001,-4.620410e-005
8.167500e-001,-4.798524e-005
8.170000e-001,-4.928060e-005
8.172500e-001,-5.073789e-005
8.175000e-001,-5.203326e-005
8.177500e-001,-5.381439e-005
8.180000e-001,-5.527168e-005
8.182500e-001,-5.672897e-005
8.185000e-001,-5.867202e-005
8.187500e-001,-6.061507e-005
8.190000e-001,-6.158660e-005
8.192500e-001,-6.223428e-005
8.195000e-001,-6.239620e-005
8.197500e-001,-6.320581e-005
8.200000e-001,-6.433926e-005
8.202500e-001,-6.579654e-005
8.205000e-001,-6.660615e-005
8.207500e-001,-6.676807e-005
8.210000e-001,-6.547270e-005
8.212500e-001,-6.352965e-005
8.215000e-001,-6.239620e-005
8.217500e-001,-6.061507e-005
8.220000e-001,-5.980547e-005
8.222500e-001,-5.786242e-005
8.225000e-001,-5.575744e-005
8.227500e-001,-5.446207e-005
8.230000e-001,-5.316671e-005
8.232500e-001,-5.219518e-005
8.235000e-001,-5.089981e-005
8.237500e-001,-4.960444e-005
8.240000e-001,-4.652794e-005
8.242500e-001,-4.264184e-005
8.245000e-001,-3.859381e-005
8.247500e-001,-3.486963e-005
8.250000e-001,-3.114545e-005
8.252500e-001,-2.790703e-005
8.255000e-001,-2.515437e-005
8.257500e-001,-2.304940e-005
8.260000e-001,-2.062058e-005
8.262500e-001,-1.802985e-005
8.265000e-001,-1.624872e-005
8.267500e-001,-1.479143e-005
8.270000e-001,-1.462951e-005
8.272500e-001,-1.381990e-005
8.275000e-001,-1.349606e-005
8.277500e-001,-1.236261e-005
8.280000e-001,-1.106724e-005
8.282500e-001,-1.058148e-005
8.285000e-001,-8.800349e-006
8.287500e-001,-6.857297e-006
8.290000e-001,-5.076166e-006
8.292500e-001,-2.971193e-006
8.295000e-001,-2.485430e-006
8.297500e-001,-2.323509e-006
8.300000e-001,-3.295035e-006
8.302500e-001,-4.266561e-006
8.305000e-001,-5.238086e-006
8.307500e-001,-6.533455e-006
8.310000e-001,-7.343060e-006
8.312500e-001,-8.638428e-006
8.315000e-001,-9.771876e-006
8.317500e-001,-1.074340e-005
8.320000e-001,-1.252453e-005
8.322500e-001,-1.479143e-005
8.325000e-001,-1.608679e-005
8.327500e-001,-1.867753e-005
8.330000e-001,-2.062058e-005
8.332500e-001,-2.223979e-005
8.335000e-001,-2.402092e-005
8.337500e-001,-2.644974e-005
8.340000e-001,-2.904048e-005
8.342500e-001,-3.195505e-005
8.345000e-001,-3.486963e-005
8.347500e-001,-3.729845e-005
8.350000e-001,-4.021302e-005
8.352500e-001,-4.231800e-005
8.355000e-001,-4.442297e-005
8.357500e-001,-4.636602e-005
8.360000e-001,-4.928060e-005
8.362500e-001,-5.284286e-005
8.365000e-001,-5.462399e-005
8.367500e-001,-5.624321e-005
8.370000e-001,-5.770049e-005
8.372500e-001,-5.931970e-005
8.375000e-001,-6.207236e-005
8.377500e-001,-6.433926e-005
8.380000e-001,-6.741576e-005
8.382500e-001,-7.065417e-005
8.385000e-001,-7.356876e-005
8.387500e-001,-7.599757e-005
8.390000e-001,-7.794063e-005
8.392500e-001,-7.923599e-005
8.395000e-001,-7.939791e-005
8.397500e-001,-7.939791e-005
8.400000e-001,-7.955983e-005
8.402500e-001,-7.923599e-005
8.405000e-001,-7.842639e-005
8.407500e-001,-7.680718e-005
8.410000e-001,-7.421643e-005
8.412500e-001,-7.065417e-005
8.415000e-001,-6.692999e-005
8.417500e-001,-6.336773e-005
8.420000e-001,-5.996739e-005
8.422500e-001,-5.640513e-005
8.425000e-001,-5.284286e-005
8.427500e-001,-4.911868e-005
8.430000e-001,-4.458489e-005
8.432500e-001,-4.102263e-005
8.435000e-001,-3.778421e-005
8.437500e-001,-3.600308e-005
8.440000e-001,-3.486963e-005
8.442500e-001,-3.406002e-005
8.445000e-001,-3.308850e-005
8.447500e-001,-3.114545e-005
8.450000e-001,-2.920240e-005
8.452500e-001,-2.709742e-005
8.455000e-001,-2.531629e-005
8.457500e-001,-2.369708e-005
8.460000e-001,-2.191595e-005
8.462500e-001,-1.981098e-005
8.465000e-001,-1.738216e-005
8.467500e-001,-1.511527e-005
8.470000e-001,-1.301030e-005
8.472500e-001,-1.122916e-005
8.475000e-001,-9.933796e-006
8.477500e-001,-8.476507e-006
8.480000e-001,-7.666902e-006
8.482500e-001,-8.152665e-006
8.485000e-001,-9.124191e-006
8.487500e-001,-9.933796e-006
8.490000e-001,-1.074340e-005
8.492500e-001,-1.090532e-005
8.495000e-001,-9.771876e-006
8.497500e-001,-9.286112e-006
8.500000e-001,-9.124191e-006
8.502500e-001,-8.962270e-006
8.505000e-001,-9.609954e-006
8.507500e-001,-1.090532e-005
8.510000e-001,-1.203877e-005
8.512500e-001,-1.381990e-005
8.515000e-001,-1.527719e-005
8.517500e-001,-1.641064e-005
8.520000e-001,-1.738216e-005
8.522500e-001,-1.802985e-005
8.525000e-001,-1.948714e-005
8.527500e-001,-2.078250e-005
8.530000e-001,-2.159211e-005
8.532500e-001,-2.272556e-005
8.535000e-001,-2.353516e-005
8.537500e-001,-2.531629e-005
8.540000e-001,-2.790703e-005
8.542500e-001,-3.082161e-005
8.545000e-001,-3.422195e-005
8.547500e-001,-3.713653e-005
8.550000e-001,-3.988919e-005
8.552500e-001,-4.102263e-005
8.555000e-001,-4.215608e-005
8.557500e-001,-4.393721e-005
8.560000e-001,-4.539450e-005
8.562500e-001,-4.814715e-005
8.565000e-001,-5.122365e-005
8.567500e-001,-5.413823e-005
8.570000e-001,-5.689089e-005
8.572500e-001,-5.915778e-005
8.575000e-001,-6.093892e-005
8.577500e-001,-6.239620e-005
8.580000e-001,-6.304389e-005
8.582500e-001,-6.417734e-005
8.585000e-001,-6.417734e-005
8.587500e-001,-6.466310e-005
8.590000e-001,-6.482501e-005
8.592500e-001,-6.498694e-005
8.595000e-001,-6.563462e-005
8.597500e-001,-6.725383e-005
8.600000e-001,-6.854921e-005
8.602500e-001,-6.968265e-005
8.605000e-001,-7.097802e-005
8.607500e-001,-7.081610e-005
8.610000e-001,-7.000649e-005
8.612500e-001,-6.871112e-005
8.615000e-001,-6.628231e-005
8.617500e-001,-6.385349e-005
8.620000e-001,-6.142468e-005
8.622500e-001,-5.948163e-005
8.625000e-001,-5.818626e-005
8.627500e-001,-5.672897e-005
8.630000e-001,-5.478592e-005
8.632500e-001,-5.170942e-005
8.635000e-001,-4.766139e-005
8.637500e-001,-4.458489e-005
8.640000e-001,-4.118455e-005
8.642500e-001,-3.924150e-005
8.645000e-001,-3.697461e-005
8.647500e-001,-3.454579e-005
8.650000e-001,-3.130737e-005
8.652500e-001,-2.742127e-005
8.655000e-001,-2.402092e-005
8.657500e-001,-2.207787e-005
8.660000e-001,-2.110635e-005
8.662500e-001,-1.981098e-005
8.665000e-001,-1.900137e-005
8.667500e-001,-1.689640e-005
8.670000e-001,-1.414374e-005
8.672500e-001,-1.252453e-005
8.675000e-001,-1.139109e-005
8.677500e-001,-1.041956e-005
8.680000e-001,-9.609954e-006
8.682500e-001,-9.124191e-006
8.685000e-001,-8.476507e-006
8.687500e-001,-8.638428e-006
8.690000e-001,-8.962270e-006
8.692500e-001,-8.800349e-006
8.695000e-001,-7.666902e-006
8.697500e-001,-6.695376e-006
8.700000e-001,-6.533455e-006
8.702500e-001,-6.857297e-006
8.705000e-001,-8.962270e-006
8.707500e-001,-1.058148e-005
8.710000e-001,-1.284837e-005
8.712500e-001,-1.430566e-005
8.715000e-001,-1.495335e-005
8.717500e-001,-1.608679e-005
8.720000e-001,-1.770600e-005
8.722500e-001,-1.932521e-005
8.725000e-001,-2.110635e-005
8.727500e-001,-2.304940e-005
8.730000e-001,-2.434477e-005
8.732500e-001,-2.564013e-005
8.735000e-001,-2.661166e-005
8.737500e-001,-2.758319e-005
8.740000e-001,-2.823087e-005
8.742500e-001,-2.920240e-005
8.745000e-001,-3.033584e-005
8.747500e-001,-3.179313e-005
8.750000e-001,-3.276466e-005
8.752500e-001,-3.503155e-005
8.755000e-001,-3.762229e-005
8.757500e-001,-4.086071e-005
8.760000e-001,-4.426105e-005
8.762500e-001,-4.701371e-005
8.765000e-001,-4.944253e-005
8.767500e-001,-5.122365e-005
8.770000e-001,-5.316671e-005
8.772500e-001,-5.478592e-005
8.775000e-001,-5.640513e-005
8.777500e-001,-5.834818e-005
8.780000e-001,-6.077699e-005
8.782500e-001,-6.239620e-005
8.785000e-001,-6.385349e-005
8.787500e-001,-6.450118e-005
8.790000e-001,-6.531078e-005
8.792500e-001,-6.563462e-005
8.795000e-001,-6.563462e-005
8.797500e-001,-6.563462e-005
8.800000e-001,-6.612039e-005
8.802500e-001,-6.660615e-005
8.805000e-001,-6.725383e-005
8.807500e-001,-6.757768e-005
8.810000e-001,-6.741576e-005
8.812500e-001,-6.644423e-005
8.815000e-001,-6.547270e-005
8.817500e-001,-6.417734e-005
8.820000e-001,-6.272005e-005
8.822500e-001,-6.077699e-005
8.825000e-001,-5.867202e-005
8.827500e-001,-5.672897e-005
8.830000e-001,-5.446207e-005
8.832500e-001,-5.106173e-005
8.835000e-001,-4.749947e-005
8.837500e-001,-4.458489e-005
8.840000e-001,-4.167031e-005
8.842500e-001,-3.907958e-005
8.845000e-001,-3.681268e-005
8.847500e-001,-3.503155e-005
8.850000e-001,-3.211697e-005
8.852500e-001,-2.871663e-005
8.855000e-001,-2.515437e-005
8.857500e-001,-2.256364e-005
8.860000e-001,-2.078250e-005
8.862500e-001,-1.981098e-005
8.865000e-001,-1.948714e-005
8.867500e-001,-1.851561e-005
8.870000e-001,-1.673448e-005
8.872500e-001,-1.479143e-005
8.875000e-001,-1.236261e-005
8.877500e-001,-1.025764e-005
8.880000e-001,-9.771876e-006
8.882500e-001,-9.286112e-006
8.885000e-001,-9.771876e-006
8.887500e-001,-9.286112e-006
8.890000e-001,-9.448033e-006
8.892500e-001,-8.314586e-006
8.895000e-001,-7.666902e-006
8.897500e-001,-7.666902e-006
8.900000e-001,-7.666902e-006
8.902500e-001,-8.800349e-006
8.905000e-001,-1.074340e-005
8.907500e-001,-1.301030e-005
8.910000e-001,-1.576295e-005
8.912500e-001,-1.722024e-005
8.915000e-001,-1.883945e-005
8.917500e-001,-2.078250e-005
8.920000e-001,-2.175403e-005
8.922500e-001,-2.337324e-005
8.925000e-001,-2.402092e-005
8.927500e-001,-2.596398e-005
8.930000e-001,-2.725934e-005
8.932500e-001,-2.855471e-005
8.935000e-001,-3.001200e-005
8.937500e-001,-3.163121e-005
8.940000e-001,-3.389810e-005
8.942500e-001,-3.632692e-005
8.945000e-001,-3.843190e-005
8.947500e-001,-4.021302e-005
8.950000e-001,-4.086071e-005
8.952500e-001,-4.167031e-005
8.955000e-001,-4.264184e-005
8.957500e-001,-4.409913e-005
8.960000e-001,-4.604218e-005
8.962500e-001,-4.668987e-005
8.965000e-001,-4.766139e-005
8.967500e-001,-4.847100e-005
8.970000e-001,-4.928060e-005
8.972500e-001,-5.009021e-005
8.975000e-001,-5.138558e-005
8.977500e-001,-5.300478e-005
8.980000e-001,-5.527168e-005
8.982500e-001,-5.851010e-005
8.985000e-001,-6.029123e-005
8.987500e-001,-6.093892e-005
8.990000e-001,-6.093892e-005
8.992500e-001,-6.142468e-005
8.995000e-001,-6.255812e-005
8.997500e-001,-6.369157e-005
9.000000e-001,-6.612039e-005
9.002500e-001,-6.725383e-005
9.005000e-001,-6.854921e-005
9.007500e-001,-6.871112e-005
9.010000e-001,-6.741576e-005
9.012500e-001,-6.498694e-005
9.015000e-001,-6.142468e-005
9.017500e-001,-5.802434e-005
9.020000e-001,-5.527168e-005
9.022500e-001,-5.300478e-005
9.025000e-001,-5.057597e-005
9.027500e-001,-4.782331e-005
9.030000e-001,-4.539450e-005
9.032500e-001,-4.280376e-005
9.035000e-001,-4.134647e-005
9.037500e-001,-3.972726e-005
9.040000e-001,-3.778421e-005
9.042500e-001,-3.551731e-005
9.045000e-001,-3.292658e-005
9.047500e-001,-3.065968e-005
9.050000e-001,-2.774511e-005
9.052500e-001,-2.531629e-005
9.055000e-001,-2.272556e-005
9.057500e-001,-1.964906e-005
9.060000e-001,-1.754408e-005
9.062500e-001,-1.624872e-005
9.065000e-001,-1.381990e-005
9.067500e-001,-1.236261e-005
9.070000e-001,-1.041956e-005
9.072500e-001,-9.448033e-006
9.075000e-001,-8.962270e-006
9.077500e-001,-8.314586e-006
9.080000e-001,-9.286112e-006
9.082500e-001,-9.771876e-006
9.085000e-001,-1.074340e-005
9.087500e-001,-1.041956e-005
9.090000e-001,-9.933796e-006
9.092500e-001,-9.448033e-006
9.095000e-001,-8.638428e-006
9.097500e-001,-8.152665e-006
9.100000e-001,-8.314586e-006
9.102500e-001,-9.771876e-006
9.105000e-001,-1.155301e-005
9.107500e-001,-1.349606e-005
9.110000e-001,-1.511527e-005
9.112500e-001,-1.657256e-005
9.115000e-001,-1.819177e-005
9.117500e-001,-1.948714e-005
9.120000e-001,-2.045866e-005
9.122500e-001,-2.126827e-005
9.125000e-001,-2.223979e-005
9.127500e-001,-2.321132e-005
9.130000e-001,-2.499245e-005
9.132500e-001,-2.725934e-005
9.135000e-001,-2.952624e-005
9.137500e-001,-3.227890e-005
9.140000e-001,-3.470771e-005
9.142500e-001,-3.665076e-005
9.145000e-001,-3.843190e-005
9.147500e-001,-3.956534e-005
9.150000e-001,-4.086071e-005
9.152500e-001,-4.231800e-005
9.155000e-001,-4.409913e-005
9.157500e-001,-4.636602e-005
9.160000e-001,-4.895676e-005
9.162500e-001,-5.073789e-005
9.165000e-001,-5.251902e-005
9.167500e-001,-5.430016e-005
9.170000e-001,-5.608128e-005
9.172500e-001,-5.802434e-005
9.175000e-001,-5.996739e-005
9.177500e-001,-6.174852e-005
9.180000e-001,-6.304389e-005
9.182500e-001,-6.466310e-005
9.185000e-001,-6.628231e-005
9.187500e-001,-6.692999e-005
9.190000e-001,-6.790152e-005
9.192500e-001,-6.854921e-005
9.195000e-001,-6.952073e-005
9.197500e-001,-7.016841e-005
9.200000e-001,-7.162570e-005
9.202500e-001,-7.227338e-005
9.205000e-001,-7.227338e-005
9.207500e-001,-7.000649e-005
9.210000e-001,-6.806344e-005
9.212500e-001,-6.612039e-005
9.215000e-001,-6.482501e-005
9.217500e-001,-6.255812e-005
9.220000e-001,-6.174852e-005
9.222500e-001,-6.077699e-005
9.225000e-001,-5.915778e-005
9.227500e-001,-5.672897e-005
9.230000e-001,-5.381439e-005
9.232500e-001,-5.009021e-005
9.235000e-001,-4.652794e-005
9.237500e-001,-4.345144e-005
9.240000e-001,-4.021302e-005
9.242500e-001,-3.794613e-005
9.245000e-001,-3.648884e-005
9.247500e-001,-3.470771e-005
9.250000e-001,-3.211697e-005
9.252500e-001,-2.952624e-005
9.255000e-001,-2.677358e-005
9.257500e-001,-2.402092e-005
9.260000e-001,-2.175403e-005
9.262500e-001,-2.045866e-005
9.265000e-001,-1.900137e-005
9.267500e-001,-1.802985e-005
9.270000e-001,-1.673448e-005
9.272500e-001,-1.560103e-005
9.275000e-001,-1.349606e-005
9.277500e-001,-1.187685e-005
9.280000e-001,-1.139109e-005
9.282500e-001,-1.058148e-005
9.285000e-001,-9.771876e-006
9.287500e-001,-9.609954e-006
9.290000e-001,-9.771876e-006
9.292500e-001,-1.009572e-005
9.295000e-001,-1.041956e-005
9.297500e-001,-9.609954e-006
9.300000e-001,-8.800349e-006
9.302500e-001,-8.476507e-006
9.305000e-001,-8.962270e-006
9.307500e-001,-9.286112e-006
9.310000e-001,-1.074340e-005
9.312500e-001,-1.139109e-005
9.315000e-001,-1.301030e-005
9.317500e-001,-1.430566e-005
9.320000e-001,-1.560103e-005
9.322500e-001,-1.802985e-005
9.325000e-001,-2.110635e-005
9.327500e-001,-2.353516e-005
9.330000e-001,-2.515437e-005
9.332500e-001,-2.693550e-005
9.335000e-001,-2.790703e-005
9.337500e-001,-2.887855e-005
9.340000e-001,-2.952624e-005
9.342500e-001,-3.114545e-005
9.345000e-001,-3.325042e-005
9.347500e-001,-3.486963e-005
9.350000e-001,-3.697461e-005
9.352500e-001,-3.891766e-005
9.355000e-001,-4.086071e-005
9.357500e-001,-4.328952e-005
9.360000e-001,-4.685179e-005
9.362500e-001,-5.122365e-005
9.365000e-001,-5.478592e-005
9.367500e-001,-5.786242e-005
9.370000e-001,-6.045315e-005
9.372500e-001,-6.255812e-005
9.375000e-001,-6.547270e-005
9.377500e-001,-6.790152e-005
9.380000e-001,-6.984457e-005
9.382500e-001,-7.081610e-005
9.385000e-001,-7.113993e-005
9.387500e-001,-7.081610e-005
9.390000e-001,-6.952073e-005
9.392500e-001,-6.887304e-005
9.395000e-001,-6.822536e-005
9.397500e-001,-6.806344e-005
9.400000e-001,-6.903497e-005
9.402500e-001,-6.984457e-005
9.405000e-001,-7.065417e-005
9.407500e-001,-7.065417e-005
9.410000e-001,-6.871112e-005
9.412500e-001,-6.595847e-005
9.415000e-001,-6.223428e-005
9.417500e-001,-5.931970e-005
9.420000e-001,-5.689089e-005
9.422500e-001,-5.446207e-005
9.425000e-001,-5.187134e-005
9.427500e-001,-4.911868e-005
9.430000e-001,-4.604218e-005
9.432500e-001,-4.296568e-005
9.435000e-001,-3.940342e-005
9.437500e-001,-3.632692e-005
9.440000e-001,-3.341234e-005
9.442500e-001,-3.114545e-005
9.445000e-001,-2.952624e-005
9.447500e-001,-2.758319e-005
9.450000e-001,-2.709742e-005
9.452500e-001,-2.515437e-005
9.455000e-001,-2.337324e-005
9.457500e-001,-1.964906e-005
9.460000e-001,-1.576295e-005
9.462500e-001,-1.220069e-005
9.465000e-001,-9.448033e-006
9.467500e-001,-8.314586e-006
9.470000e-001,-7.990744e-006
9.472500e-001,-6.857297e-006
9.475000e-001,-5.723850e-006
9.477500e-001,-4.914245e-006
9.480000e-001,-3.295035e-006
9.482500e-001,-8.662195e-007
9.485000e-001,1.238754e-006
9.487500e-001,3.181806e-006
9.490000e-001,3.829490e-006
9.492500e-001,3.829490e-006
9.495000e-001,3.505648e-006
9.497500e-001,1.724517e-006
9.500000e-001,1.053066e-007
9.502500e-001,-2.485430e-006
9.505000e-001,-4.914245e-006
9.507500e-001,-7.343060e-006
9.510000e-001,-9.609954e-006
9.512500e-001,-1.155301e-005
9.515000e-001,-1.414374e-005
9.517500e-001,-1.705832e-005
9.520000e-001,-1.932521e-005
9.522500e-001,-2.062058e-005
9.525000e-001,-2.175403e-005
9.527500e-001,-2.321132e-005
9.530000e-001,-2.531629e-005
9.532500e-001,-2.758319e-005
9.535000e-001,-2.952624e-005
9.537500e-001,-3.130737e-005
9.540000e-001,-3.292658e-005
9.542500e-001,-3.503155e-005
9.545000e-001,-3.697461e-005
9.547500e-001,-3.794613e-005
9.550000e-001,-4.053687e-005
9.552500e-001,-4.312760e-005
9.555000e-001,-4.701371e-005
9.557500e-001,-4.976636e-005
9.560000e-001,-5.284286e-005
9.562500e-001,-5.559552e-005
9.565000e-001,-5.786242e-005
9.567500e-001,-6.061507e-005
9.570000e-001,-6.272005e-005
9.572500e-001,-6.433926e-005
9.575000e-001,-6.612039e-005
9.577500e-001,-6.741576e-005
9.580000e-001,-6.838728e-005
9.582500e-001,-6.919688e-005
9.585000e-001,-7.049226e-005
9.587500e-001,-7.194954e-005
9.590000e-001,-7.389260e-005
9.592500e-001,-7.502604e-005
9.595000e-001,-7.502604e-005
9.597500e-001,-7.486413e-005
9.600000e-001,-7.405452e-005
9.602500e-001,-7.340683e-005
9.605000e-001,-7.259723e-005
9.607500e-001,-7.243531e-005
9.610000e-001,-7.243531e-005
9.612500e-001,-7.194954e-005
9.615000e-001,-7.065417e-005
9.617500e-001,-6.854921e-005
9.620000e-001,-6.563462e-005
9.622500e-001,-6.320581e-005
9.625000e-001,-6.061507e-005
9.627500e-001,-5.883394e-005
9.630000e-001,-5.786242e-005
9.632500e-001,-5.689089e-005
9.635000e-001,-5.527168e-005
9.637500e-001,-5.332863e-005
9.640000e-001,-5.009021e-005
9.642500e-001,-4.620410e-005
9.645000e-001,-4.312760e-005
9.647500e-001,-4.069879e-005
9.650000e-001,-3.875573e-005
9.652500e-001,-3.778421e-005
9.655000e-001,-3.567924e-005
9.657500e-001,-3.195505e-005
9.660000e-001,-2.742127e-005
9.662500e-001,-2.256364e-005
9.665000e-001,-1.900137e-005
9.667500e-001,-1.560103e-005
9.670000e-001,-1.236261e-005
9.672500e-001,-1.025764e-005
9.675000e-001,-7.343060e-006
9.677500e-001,-5.561929e-006
9.680000e-001,-4.104640e-006
9.682500e-001,-3.133114e-006
9.685000e-001,-1.837745e-006
9.687500e-001,-7.042985e-007
9.690000e-001,1.076833e-006
9.692500e-001,2.696043e-006
9.695000e-001,3.991411e-006
9.697500e-001,4.801016e-006
9.700000e-001,4.801016e-006
9.702500e-001,4.477174e-006
9.705000e-001,2.696043e-006
9.707500e-001,1.238754e-006
9.710000e-001,-7.042985e-007
9.712500e-001,-2.323509e-006
9.715000e-001,-4.104640e-006
9.717500e-001,-6.857297e-006
9.720000e-001,-9.448033e-006
9.722500e-001,-1.317222e-005
9.725000e-001,-1.657256e-005
9.727500e-001,-1.948714e-005
9.730000e-001,-2.159211e-005
9.732500e-001,-2.369708e-005
9.735000e-001,-2.515437e-005
9.737500e-001,-2.693550e-005
9.740000e-001,-2.871663e-005
9.742500e-001,-3.098353e-005
9.745000e-001,-3.308850e-005
9.747500e-001,-3.551731e-005
9.750000e-001,-3.762229e-005
9.752500e-001,-4.005111e-005
9.755000e-001,-4.231800e-005
9.757500e-001,-4.296568e-005
9.760000e-001,-4.426105e-005
9.762500e-001,-4.604218e-005
9.765000e-001,-4.830907e-005
9.767500e-001,-5.089981e-005
9.770000e-001,-5.316671e-005
9.772500e-001,-5.478592e-005
9.775000e-001,-5.656705e-005
9.777500e-001,-5.802434e-005
9.780000e-001,-5.980547e-005
9.782500e-001,-6.142468e-005
9.785000e-001,-6.320581e-005
9.787500e-001,-6.498694e-005
9.790000e-001,-6.692999e-005
9.792500e-001,-6.952073e-005
9.795000e-001,-7.146378e-005
9.797500e-001,-7.340683e-005
9.800000e-001,-7.356876e-005
9.802500e-001,-7.340683e-005
9.805000e-001,-7.243531e-005
9.807500e-001,-7.113993e-005
9.810000e-001,-6.952073e-005
9.812500e-001,-6.887304e-005
9.815000e-001,-6.773959e-005
9.817500e-001,-6.595847e-005
9.820000e-001,-6.401541e-005
9.822500e-001,-6.093892e-005
9.825000e-001,-5.672897e-005
9.827500e-001,-5.300478e-005
9.830000e-001,-4.911868e-005
9.832500e-001,-4.668987e-005
9.835000e-001,-4.393721e-005
9.837500e-001,-4.215608e-005
9.840000e-001,-3.940342e-005
9.842500e-001,-3.762229e-005
9.845000e-001,-3.551731e-005
9.847500e-001,-3.357426e-005
9.850000e-001,-3.098353e-005
9.852500e-001,-2.823087e-005
9.855000e-001,-2.483053e-005
9.857500e-001,-2.175403e-005
9.860000e-001,-1.900137e-005
9.862500e-001,-1.641064e-005
9.865000e-001,-1.543911e-005
9.867500e-001,-1.398182e-005
9.870000e-001,-1.236261e-005
9.872500e-001,-1.122916e-005
9.875000e-001,-9.609954e-006
9.877500e-001,-8.638428e-006
9.880000e-001,-8.638428e-006
9.882500e-001,-8.152665e-006
9.885000e-001,-7.666902e-006
9.887500e-001,-6.695376e-006
9.890000e-001,-6.371534e-006
9.892500e-001,-5.723850e-006
9.895000e-001,-5.076166e-006
9.897500e-001,-5.238086e-006
9.900000e-001,-6.047692e-006
9.902500e-001,-7.666902e-006
9.905000e-001,-9.933796e-006
9.907500e-001,-1.203877e-005
9.910000e-001,-1.349606e-005
9.912500e-001,-1.398182e-005
9.915000e-001,-1.446759e-005
9.917500e-001,-1.495335e-005
9.920000e-001,-1.608679e-005
9.922500e-001,-1.819177e-005
9.925000e-001,-2.094442e-005
9.927500e-001,-2.288748e-005
9.930000e-001,-2.434477e-005
9.932500e-001,-2.499245e-005
9.935000e-001,-2.596398e-005
9.937500e-001,-2.758319e-005
9.940000e-001,-2.920240e-005
9.942500e-001,-3.130737e-005
9.945000e-001,-3.406002e-005
9.947500e-001,-3.778421e-005
9.950000e-001,-4.086071e-005
9.952500e-001,-4.442297e-005
9.955000e-001,-4.749947e-005
9.957500e-001,-4.992829e-005
9.960000e-001,-5.203326e-005
9.962500e-001,-5.365247e-005
9.965000e-001,-5.494784e-005
9.967500e-001,-5.640513e-005
9.970000e-001,-5.851010e-005
9.972500e-001,-6.061507e-005
9.975000e-001,-6.239620e-005
9.977500e-001,-6.320581e-005
9.980000e-001,-6.417734e-005
9.982500e-001,-6.595847e-005
9.985000e-001,-6.725383e-005
9.987500e-001,-6.806344e-005
9.990000e-001,-6.854921e-005
9.992500e-001,-6.903497e-005
9.995000e-001,-6.968265e-005
9.997500e-001,-7.049226e-005
1.000000e+000,-7.097802e-005
1.000250e+000,-7.049226e-005
1.000500e+000,-6.984457e-005
1.000750e+000,-6.854921e-005
1.001000e+000,-6.692999e-005
1.001250e+000,-6.547270e-005
1.001500e+000,-6.320581e-005
1.001750e+000,-6.126276e-005
1.002000e+000,-5.931970e-005
1.002250e+000,-5.721473e-005
1.002500e+000,-5.510976e-005
1.002750e+000,-5.251902e-005
1.003000e+000,-4.944253e-005
1.003250e+000,-4.539450e-005
1.003500e+000,-4.134647e-005
1.003750e+000,-3.843190e-005
1.004000e+000,-3.600308e-005
1.004250e+000,-3.454579e-005
1.004500e+000,-3.341234e-005
1.004750e+000,-3.049776e-005
1.005000e+000,-2.742127e-005
1.005250e+000,-2.385900e-005
1.005500e+000,-2.029674e-005
1.005750e+000,-1.592487e-005
1.006000e+000,-1.268645e-005
1.006250e+000,-9.771876e-006
1.006500e+000,-8.638428e-006
1.006750e+000,-9.933796e-006
1.007000e+000,-1.139109e-005
1.007250e+000,-1.349606e-005
1.007500e+000,-1.462951e-005
1.007750e+000,-1.446759e-005
1.008000e+000,-1.398182e-005
1.008250e+000,-1.268645e-005
1.008500e+000,-1.155301e-005
1.008750e+000,-1.058148e-005
1.009000e+000,-9.933796e-006
1.009250e+000,-9.448033e-006
1.009500e+000,-8.962270e-006
1.009750e+000,-8.962270e-006
1.010000e+000,-8.800349e-006
1.010250e+000,-7.828823e-006
1.010500e+000,-8.152665e-006
1.010750e+000,-9.286112e-006
1.011000e+000,-1.074340e-005
1.011250e+000,-1.139109e-005
1.011500e+000,-1.203877e-005
1.011750e+000,-1.236261e-005
1.012000e+000,-1.268645e-005
1.012250e+000,-1.252453e-005
1.012500e+000,-1.381990e-005
1.012750e+000,-1.479143e-005
1.013000e+000,-1.673448e-005
1.013250e+000,-1.932521e-005
1.013500e+000,-2.191595e-005
1.013750e+000,-2.385900e-005
1.014000e+000,-2.677358e-005
1.014250e+000,-2.985008e-005
1.014500e+000,-3.325042e-005
1.014750e+000,-3.600308e-005
1.015000e+000,-3.956534e-005
1.015250e+000,-4.264184e-005
1.015500e+000,-4.571834e-005
1.015750e+000,-4.879484e-005
1.016000e+000,-5.203326e-005
1.016250e+000,-5.559552e-005
1.016500e+000,-5.834818e-005
1.016750e+000,-6.061507e-005
1.017000e+000,-6.255812e-005
1.017250e+000,-6.417734e-005
1.017500e+000,-6.498694e-005
1.017750e+000,-6.579654e-005
1.018000e+000,-6.612039e-005
1.018250e+000,-6.692999e-005
1.018500e+000,-6.790152e-005
1.018750e+000,-6.919688e-005
1.019000e+000,-7.049226e-005
1.019250e+000,-7.259723e-005
1.019500e+000,-7.437836e-005
1.019750e+000,-7.486413e-005
1.020000e+000,-7.583565e-005
1.020250e+000,-7.583565e-005
1.020500e+000,-7.567373e-005
1.020750e+000,-7.567373e-005
1.021000e+000,-7.502604e-005
1.021250e+000,-7.389260e-005
1.021500e+000,-7.243531e-005
1.021750e+000,-7.081610e-005
1.022000e+000,-6.854921e-005
1.022250e+000,-6.482501e-005
1.022500e+000,-6.174852e-005
1.022750e+000,-5.818626e-005
1.023000e+000,-5.478592e-005
1.023250e+000,-5.089981e-005
1.023500e+000,-4.749947e-005
1.023750e+000,-4.555642e-005
1.024000e+000,-4.312760e-005
1.024250e+000,-4.150839e-005
1.024500e+000,-3.859381e-005
1.024750e+000,-3.584116e-005
1.025000e+000,-3.195505e-005
1.025250e+000,-2.693550e-005
1.025500e+000,-2.207787e-005
1.025750e+000,-1.786793e-005
1.026000e+000,-1.446759e-005
1.026250e+000,-1.106724e-005
1.026500e+000,-8.152665e-006
1.026750e+000,-6.209613e-006
1.027000e+000,-5.400008e-006
1.027250e+000,-5.723850e-006
1.027500e+000,-6.371534e-006
1.027750e+000,-7.019218e-006
1.028000e+000,-6.695376e-006
1.028250e+000,-6.857297e-006
1.028500e+000,-6.047692e-006
1.028750e+000,-6.209613e-006
1.029000e+000,-7.019218e-006
1.029250e+000,-8.314586e-006
1.029500e+000,-9.771876e-006
1.029750e+000,-1.139109e-005
1.030000e+000,-1.187685e-005
1.030250e+000,-1.284837e-005
1.030500e+000,-1.317222e-005
